-1,0.50206,0.54216,0.72238,1.4289,2.1365,2.2811,1.9363,1.4689,1.0088,0.38028,-0.29678,-0.51393,-0.25564,-0.1072,-0.28783,-0.41801,-0.31916,-0.26038,-0.35036,-0.50549,-0.71089,-0.82392,-0.8997,-1.1539,-1.2298,-1.0441,-1.202,-1.3922,-1.1301,-1.1799,-1.6493,-1.7266,-1.6084,-1.6628,-1.6507,-1.6973,-1.8387,-1.8026,-1.7805,-1.8252,-1.6448,-1.4238,-1.3922,-1.3604,-1.2002,-0.91863,-0.68592,-0.66794,-0.51272,-0.10169,0.063954,0.082614,0.23761,0.17479,0.12321,0.50339,0.68387,0.47499,0.5328,0.72355,0.66442,0.64794,0.75705,0.73207,0.62021,0.6063,0.67795,0.68908,0.59881,0.54265,0.58181,0.63063,0.66442,0.68632,0.65738,0.65089,0.72174,0.73971,0.69148,0.69523,0.75011,0.85384,0.91602,0.82775,0.88091,1.0888,0.93104,0.6103,0.63889,0.68468,0.58324,0.64052,0.70859,0.70501,0.71382,0.43376
1,0.14765,0.80467,0.36777,0.24389,0.026614,-0.2744,0.096731,-0.74773,-1.6098,-1.1796,-1.0559,-1.1288,-0.68604,-0.79879,-1.7143,-1.6499,-1.0327,-1.4239,-1.7824,-1.0251,-1.7989,-1.7936,-1.0855,-1.5744,-1.0361,-2.13,-2.0386,-0.055013,-1.1402,-0.70428,0.048723,-0.47585,0.52587,0.24478,0.67993,0.9286,0.57304,1.2316,1.0433,1.5802,1.2906,0.75052,0.97757,1.1416,1.5299,0.84768,0.76676,0.56568,1.0846,1.0574,0.50308,0.95329,0.4542,1.199,0.84972,-0.13771,0.63112,0.69408,0.51507,0.55923,0.55571,0.46969,0.38882,0.34313,0.5356,0.90071,0.65685,0.69003,0.9526,0.54777,-0.16769,0.011532,-0.17649,-0.27771,-0.22484,-0.91072,-0.037932,0.071668,-1.0489,-0.63622,-0.38664,-0.50751,-0.71666,-0.46376,-0.46044,-0.77079,-0.5335,-0.40023,0.17608,1.1118,2.4384,2.7349,1.7361,0.036857,-1.2651,-0.20802
-1,0.31665,0.2432,0.37047,1.0637,1.6782,1.7596,1.6977,1.6122,1.1682,0.49996,-0.022363,-0.23532,-0.11827,-0.071027,-0.32299,-0.43356,-0.31866,-0.29565,-0.41773,-0.68248,-0.88184,-0.84332,-0.88365,-1.03,-1.0553,-1.1686,-1.364,-1.3376,-1.2613,-1.4098,-1.6345,-1.7032,-1.677,-1.7826,-1.9969,-2.0564,-1.9379,-1.8794,-1.9154,-1.8455,-1.6581,-1.5095,-1.3934,-1.2329,-1.0243,-0.76864,-0.51129,-0.30956,-0.13196,0.035054,0.14216,0.22581,0.34369,0.42859,0.46957,0.56978,0.67567,0.69989,0.73256,0.77167,0.73813,0.7237,0.80688,0.87898,0.85579,0.80638,0.7925,0.80381,0.78194,0.70044,0.73596,0.86416,0.70767,0.45876,0.60015,0.82514,0.80003,0.76282,0.75544,0.65377,0.52644,0.47734,0.57495,0.69842,0.72241,0.7716,0.76423,0.61062,0.5529,0.56679,0.604,0.77707,0.81235,0.74885,0.81804,0.53935
-1,1.1689,2.0759,1.7601,1.6064,1.949,1.3028,0.45933,0.51641,0.85218,0.98923,0.82125,0.57645,0.74309,0.85297,0.30746,-0.13039,-0.0622,-0.10073,-0.23282,-0.23446,-0.21476,-0.23041,-0.22755,-0.231,-0.46348,-0.72421,-0.78788,-0.98669,-1.2247,-1.2881,-1.3641,-1.4282,-1.5018,-1.6481,-1.7058,-1.6868,-1.7057,-1.7777,-1.8693,-1.8584,-1.7377,-1.7291,-1.7281,-1.546,-1.4591,-1.4108,-1.1634,-0.90742,-0.71621,-0.58176,-0.44253,-0.20705,-0.026463,0.11704,0.22064,0.26432,0.40505,0.46497,0.43416,0.48681,0.43939,0.36961,0.41315,0.39789,0.31876,0.26372,0.28886,0.35824,0.32674,0.22922,0.20442,0.24439,0.26263,0.24388,0.2275,0.24578,0.23296,0.16461,0.17154,0.16669,0.099141,0.14694,0.13341,0.12529,0.20271,0.18641,0.41901,0.72389,1.3239,2.1365,1.7466,1.4702,1.8935,1.2569,0.80041,0.73154
1,0.64866,0.75203,2.6362,3.4557,2.1182,0.52062,-0.18863,0.78082,0.93377,0.7014,1.0061,0.39578,-0.3697,-0.7382,-0.72908,-0.90694,-0.87096,-1.0602,-1.198,-0.9816,-1.2725,-1.2874,-1.2767,-1.5397,-1.3466,-1.5352,-1.7634,-1.6888,-1.8094,-1.8639,-1.9945,-1.8898,-1.9257,-1.8336,-1.6618,-1.3425,-1.0113,-0.67272,-0.21616,0.052872,0.56209,0.70088,0.94693,1.005,1.0275,1.1917,0.96886,0.84462,0.77949,0.74394,0.67335,0.50528,0.66255,0.6077,0.5461,0.68716,0.543,0.45315,0.48578,0.44068,0.53915,0.36957,0.37732,0.47011,0.32145,0.32551,0.25126,0.27057,0.27716,0.15517,0.12095,0.3264,0.47395,0.59474,0.6982,0.82678,0.57517,0.4012,0.34997,0.14805,-0.033206,-0.11427,0.12035,-0.2201,-0.15123,-0.077445,-0.097869,-0.13679,-0.34024,-0.089441,-0.080297,-0.19258,-0.3047,-0.45456,0.31459,0.58219
1,0.40473,1.2809,2.5151,1.2995,1.4534,0.47428,-1.3966,-0.64708,0.43195,0.13245,-0.40661,0.23057,-0.12135,-0.91864,-1.2468,-1.3484,-1.1903,-1.0113,-2.0039,-1.327,-0.97603,-1.8636,-1.4877,-1.6161,-1.9576,-1.7007,-1.5185,-1.8976,-2.1772,-1.8728,-1.7753,-1.6682,-1.9333,-1.4896,-1.1507,-1.0782,-0.77372,-0.52022,-0.20525,-0.026608,0.29905,0.19432,0.70179,0.67189,0.85379,0.67685,0.89892,0.77226,0.64986,0.63882,0.67025,1.0374,0.43305,0.65716,0.52901,0.56207,1.0284,-0.019686,1.1778,0.8479,0.16943,0.67343,0.63526,0.74822,0.64017,0.59132,0.43168,0.7175,0.59542,0.45849,0.48357,0.65571,0.49079,1.0669,0.92915,0.93903,1.3122,0.5806,0.57096,0.52277,0.44632,0.62068,0.049713,0.26986,0.41892,-0.064346,0.37647,0.27781,0.22568,0.15909,0.40835,0.54002,-0.027791,0.20348,0.34696,0.33918
-1,1.205,2.0319,2.4473,2.7394,2.7459,2.2764,1.5254,0.7606,0.18845,-0.029051,-0.049524,-0.20996,-0.37415,-0.24864,-0.095017,-0.099479,-0.12142,-0.35855,-0.73913,-0.78765,-0.70894,-0.75976,-0.74106,-0.88171,-1.0189,-0.58138,-0.35899,-0.92422,-1.0948,-0.66136,-0.78512,-1.2882,-1.3345,-1.2678,-1.5021,-1.64,-1.534,-1.5669,-1.731,-1.7197,-1.6685,-1.7355,-1.6473,-1.3876,-1.3096,-1.3197,-1.1004,-0.90046,-0.93434,-0.76519,-0.3175,-0.12712,-0.12394,0.094418,0.28843,0.26135,0.28973,0.40728,0.43664,0.44931,0.57087,0.71118,0.67271,0.50102,0.50474,0.6441,0.56934,0.40638,0.45023,0.51752,0.50277,0.57193,0.63469,0.64931,0.70308,0.58769,0.3552,0.39096,0.55883,0.61101,0.69258,0.79445,0.89689,1.0515,0.93912,0.55574,0.44731,0.56464,0.4876,0.421,0.54977,0.50546,0.28184,0.34683,0.52638,0.22789
-1,0.59824,1.0987,1.6835,2.4789,2.8024,2.4387,1.7177,1.0093,0.25735,-0.22156,-0.13558,-0.19127,-0.30697,-0.16764,-0.098005,-0.05626,-0.3234,-0.63018,-0.56972,-0.70941,-0.75032,-0.67333,-0.9801,-1.2071,-1.1814,-1.0264,-1.2995,-1.9289,-1.9076,-1.8688,-1.9906,-2.0116,-2.4027,-2.144,-1.6618,-1.9394,-1.8723,-1.5547,-1.3012,-1.0165,-0.97928,-0.70625,-0.30337,-0.012646,0.16967,0.09133,0.25028,0.38727,0.25793,0.42929,0.51751,0.40468,0.51198,0.57733,0.52189,0.55256,0.60214,0.54818,0.41385,0.37404,0.51866,0.55102,0.41478,0.4808,0.59544,0.56874,0.72197,0.84313,0.61683,0.60802,0.7763,0.61682,0.59952,0.68893,0.53073,0.54462,0.65982,0.56486,0.47263,0.4542,0.40649,0.31573,0.15548,0.15012,0.35439,0.37869,0.39463,0.52578,0.27935,-0.069658,0.027544,0.15302,0.042232,0.13427,0.29615,0.062932
1,0.32801,1.2102,2.5977,2.2108,1.6217,-0.23932,-1.5987,-0.60214,-0.086603,0.026581,-0.30305,-0.37246,-0.27913,-0.94947,-0.96409,-0.95486,-1.2033,-1.3401,-1.3715,-1.1739,-1.419,-1.5592,-1.3084,-1.8124,-1.6991,-1.5042,-2.0016,-1.8574,-1.9543,-1.7167,-2.1675,-1.6749,-1.8146,-1.5074,-0.9997,-1.0499,-0.51485,-0.29835,0.12888,0.37943,0.4746,0.60647,1.0355,0.9076,1.0429,0.91986,1.1408,0.85017,0.78689,1.0158,0.78088,0.80101,0.65621,0.69618,0.6779,0.90151,0.65492,0.81448,0.85914,0.68345,0.64021,0.79178,0.56014,0.63391,0.77201,0.41967,0.6348,0.53577,0.3213,0.48256,0.57631,0.28996,0.68977,0.8556,0.75653,0.86013,0.72388,0.44589,0.52091,0.5971,0.0041582,0.18874,0.35839,-0.16948,0.31336,0.12599,-0.046115,0.099801,-0.052888,0.11906,0.061989,-0.060122,-0.030953,0.0011112,0.22772,0.23971
1,1.6682,2.8482,2.517,2.1728,0.72047,0.72538,1.6386,1.2929,1.6096,1.395,0.14928,-0.33323,-0.45278,-0.78509,-0.82853,-0.82657,-0.9735,-1.1701,-1.1505,-1.2575,-1.4204,-1.4846,-1.4658,-1.3779,-1.6042,-1.7756,-1.7615,-2.0809,-2.2271,-1.9579,-2.109,-1.8941,-1.8003,-1.4642,-1.0481,-0.89518,-0.4907,-0.017317,0.20345,0.27883,0.67502,0.65511,0.68049,0.71908,0.72019,0.65602,0.53604,0.66837,0.68619,0.55905,0.56085,0.65965,0.70941,0.61548,0.63126,0.56742,0.40071,0.45704,0.5083,0.4118,0.40053,0.36189,0.26792,0.32175,0.26269,0.22582,0.25669,0.14651,0.12344,0.10569,0.19601,0.064346,0.080598,0.33327,0.29294,0.38261,0.68151,0.6151,0.32699,0.16549,0.096226,0.018381,-0.036049,-0.022688,-0.0061313,-0.014323,-0.15436,-0.017805,-0.0075063,0.0053625,-0.026597,-0.048192,-0.032347,-0.21405,0.056031,0.14789
1,0.48223,0.98683,1.4438,2.1864,2.5175,1.8787,1.0927,0.35257,-0.29388,-0.11539,0.32009,0.20484,0.09906,0.22946,0.24823,0.18642,-0.18923,-0.5396,-0.45737,-0.55986,-0.68034,-0.53121,-0.55707,-0.70829,-0.79252,-0.80892,-0.89253,-1.1835,-1.3929,-1.4238,-1.6533,-1.8564,-1.8704,-2.2614,-2.4536,-2.2074,-2.2578,-2.1794,-1.9633,-1.8399,-1.5236,-1.3562,-1.0187,-0.47368,-0.34465,-0.17376,0.20482,0.29904,0.3197,0.58914,0.78199,0.65391,0.64802,0.81655,0.78282,0.77051,0.82553,0.67838,0.53792,0.53595,0.5649,0.55415,0.48342,0.43788,0.4043,0.39576,0.48235,0.51771,0.47599,0.53858,0.63027,0.61814,0.66434,0.86471,1.1088,1.239,1.09,0.84223,0.93302,0.89372,0.40913,0.29969,0.35868,0.16955,0.28576,0.32195,0.033173,0.0068894,-0.057386,-0.30633,-0.067411,0.22519,0.069387,0.058976,0.2072,0.13315
1,0.27483,0.48104,0.91926,1.5386,2.0466,2.2471,1.8813,1.2235,0.58101,-0.013896,0.07521,0.32472,-0.099838,-0.16935,0.0027368,-0.068219,-0.26885,-0.87451,-0.96354,-0.63927,-0.97818,-1.0723,-0.84335,-1.1584,-1.261,-1.1862,-1.4552,-1.693,-1.9015,-1.6818,-1.571,-2.0164,-2.1419,-2.027,-1.9897,-1.8155,-2.0674,-2.175,-1.5897,-1.3726,-1.2478,-0.88125,-0.68725,-0.40212,-0.2006,-0.071598,0.031613,0.080364,0.21287,0.33541,0.47743,0.53827,0.48988,0.51794,0.53221,0.48414,0.48956,0.51086,0.42389,0.49546,0.70477,0.56085,0.43955,0.58183,0.61367,0.63758,0.66634,0.6343,0.65032,0.70749,0.76193,0.75524,0.7847,0.91912,0.96094,0.91455,0.99706,1.0214,0.83072,0.75423,0.73993,0.53292,0.44239,0.50658,0.44783,0.42828,0.43738,0.34222,0.3803,0.36825,0.25368,0.29288,0.29816,0.31718,0.42304,0.26152
1,-0.7063,-0.22618,0.2162,-0.31773,-0.64897,-1.2193,-1.5243,-1.5081,-1.5509,-1.6005,-1.6892,-1.3954,-1.4708,-1.5818,-1.3081,-1.322,-1.3202,-1.3946,-1.2384,-1.318,-1.4283,-1.3303,-1.3595,-1.3505,-1.4492,-1.4249,-1.2991,-1.1066,-0.97071,-0.78747,-0.40475,-0.23163,-0.067759,0.14492,0.42255,0.53403,0.35755,0.52821,0.46176,0.36351,0.31357,-0.023153,0.24232,-0.0023967,0.0079621,0.025181,-0.046041,0.31519,0.21896,0.30766,0.53139,0.41761,0.48482,0.56905,0.70471,0.67667,0.63187,0.80665,0.67985,0.57379,0.6917,0.70952,0.68261,0.60654,0.62394,0.53699,0.79353,1.1081,1.0155,1.1737,0.67926,0.5706,0.48243,0.33532,0.4155,0.26353,0.26493,0.19965,0.22968,0.3264,0.20278,0.18153,0.23193,0.3861,0.26527,0.2469,0.33817,0.12089,0.33197,0.64159,1.5314,3.1248,3.3321,2.6537,1.1554,-0.36682
1,0.98755,2.8133,3.8503,2.3798,1.6998,0.078576,-0.59667,0.82702,0.8712,0.80991,0.84297,0.60561,0.089043,-0.59212,-0.64019,-0.58381,-1.0218,-0.87248,-0.97818,-1.0883,-1.061,-1.2332,-1.3974,-1.4202,-1.2854,-1.6193,-1.6767,-1.5017,-1.6669,-1.8557,-1.9269,-1.5274,-1.6123,-1.6619,-1.2215,-1.0314,-0.56223,-0.14094,-0.044415,0.4079,0.64344,0.52701,0.96392,1.1173,0.86715,1.1099,0.94822,0.90598,0.8093,0.86301,0.76801,0.57859,0.83727,0.42244,0.55999,0.74247,0.55068,0.52511,0.63925,0.47648,0.39719,0.54513,0.33303,0.36684,0.44647,0.078467,0.20628,0.3343,0.10823,0.0034538,0.028081,0.28769,0.24131,0.69449,0.67393,0.49159,0.50706,0.10099,0.25563,-0.080152,-0.4071,-0.17139,-0.44053,-0.32063,-0.37313,-0.42549,-0.24189,-0.69144,-0.40364,-0.29385,-0.55918,-0.19439,-0.55988,-0.70638,-0.30708,-0.2225
-1,0.50112,0.72913,0.83374,1.2558,2.0014,2.504,2.4542,2.2203,2.1224,1.9165,1.3821,0.73545,0.22086,-0.048817,0.058893,0.37064,0.35393,-0.05694,-0.27015,-0.030288,0.18393,0.034146,-0.18552,-0.17694,-0.14089,-0.33827,-0.56328,-0.53184,-0.39903,-0.47085,-0.69888,-0.86422,-0.92544,-0.92041,-0.88178,-0.94324,-1.2016,-1.4695,-1.4964,-1.4125,-1.5678,-1.9121,-1.9972,-1.7389,-1.5818,-1.7166,-1.798,-1.6296,-1.451,-1.4278,-1.4234,-1.3124,-1.1325,-0.92964,-0.71797,-0.53865,-0.41702,-0.29452,-0.13418,-0.029799,-0.047162,-0.059706,0.087575,0.29597,0.35727,0.3053,0.35968,0.53631,0.60599,0.52141,0.49248,0.56384,0.5487,0.45978,0.5321,0.75308,0.84652,0.75514,0.69977,0.73676,0.65963,0.4589,0.42428,0.57515,0.55919,0.35328,0.35802,0.60589,0.71096,0.61971,0.56493,0.55611,0.56182,0.65819,0.63971,0.24262
1,2.2488,3.535,2.8883,2.7209,0.86212,0.37558,1.6392,1.2831,1.1571,1.1851,0.59538,-0.051509,-0.43381,-0.37917,-0.52318,-0.7183,-0.71357,-0.82041,-0.85969,-1.0077,-1.1346,-1.0715,-1.1278,-1.316,-1.5014,-1.5052,-1.6539,-1.8809,-1.8101,-1.8814,-1.9864,-1.9803,-1.7677,-1.4317,-1.2489,-0.92451,-0.49763,-0.15127,0.19644,0.36146,0.52482,0.78185,0.85575,0.868,0.82625,0.78078,0.72519,0.65159,0.6555,0.52495,0.56875,0.72006,0.57296,0.50084,0.49536,0.5149,0.51638,0.40598,0.42214,0.41079,0.31947,0.31648,0.30741,0.2523,0.098817,0.058966,0.14113,0.074439,0.010571,0.018009,0.060328,-0.0052835,-0.039993,0.085052,0.23215,0.38485,0.4029,0.39356,0.24033,0.053104,-0.015459,-0.1951,-0.19249,-0.34954,-0.43444,-0.23053,-0.27959,-0.39913,-0.35639,-0.25185,-0.31717,-0.35169,-0.25222,-0.27544,-0.29135,-0.20508
1,0.31931,2.0917,3.4438,2.233,2.3024,0.62161,-0.88666,0.24808,0.4988,-0.098005,-0.030766,0.34472,-0.38987,-0.62012,-1.0453,-1.041,-0.6187,-1.1784,-1.1975,-1.0881,-1.3817,-1.2972,-1.3249,-1.5013,-1.6616,-1.8334,-1.8142,-1.6741,-1.8588,-1.9986,-2.0456,-1.8968,-1.6344,-1.343,-1.1657,-0.90722,-0.50203,-0.14391,0.20306,0.67386,0.70464,0.63687,1.1167,0.66957,1.1392,1.2433,0.77798,0.93666,0.70713,0.88869,0.9201,0.74581,0.65806,0.40539,0.82966,0.74841,0.58095,0.62708,0.48056,0.56559,0.66788,0.56886,0.45094,0.45858,0.38093,0.34951,0.39879,0.22801,0.14285,0.10984,0.20422,0.10186,0.27017,0.45459,0.68959,0.92953,0.50571,0.36376,0.44699,0.29018,0.040298,-0.20254,-0.083446,-0.15863,-0.042543,-0.19343,-0.16064,-0.20792,-0.16578,-0.18602,-0.184,-0.026053,-0.27751,-0.12846,-0.042732,-0.17717
1,0.6304,2.192,3.5209,2.73,2.1389,0.56073,-0.67853,0.73745,1.1285,0.61621,0.95797,0.84747,-0.0042979,-0.49078,-0.53658,-0.75627,-0.86237,-0.92218,-0.91724,-1.034,-1.0889,-1.1076,-1.1773,-1.3366,-1.5629,-1.4417,-1.525,-1.8071,-1.9285,-1.9497,-1.8198,-1.758,-1.7317,-1.6749,-1.302,-1.0402,-0.76387,-0.34105,-0.1628,0.24013,0.31242,0.53647,1.0895,0.83279,0.81901,0.90212,0.79194,0.88963,0.77247,0.74699,0.6654,0.52013,0.7012,0.82643,0.66509,0.42309,0.68347,0.77858,0.36477,0.65741,0.90881,0.72743,0.41164,0.24151,0.41591,0.32388,0.27554,0.20409,0.22255,0.3169,0.084497,0.35334,0.37653,0.65982,0.8162,0.68013,0.31023,-0.20623,0.030208,0.094015,-0.10082,-0.28889,-0.26616,-0.15193,-0.47784,-0.22496,-0.27265,-0.48407,-0.51663,-0.5743,-0.14116,-0.44796,-0.73802,-0.3986,-0.48869,-0.23232
-1,1.0881,1.564,1.3689,1.2502,1.4915,1.6826,1.227,0.34397,-0.33532,-0.72932,-0.94972,-1.0159,-1.066,-1.1634,-1.2075,-1.2347,-1.3248,-1.3649,-1.3312,-1.3564,-1.3705,-1.3339,-1.3782,-1.3953,-1.401,-1.492,-1.503,-1.5535,-1.5989,-1.4646,-1.5164,-1.6458,-1.5075,-1.4003,-1.3866,-1.2241,-1.0356,-0.88889,-0.67087,-0.50036,-0.30487,-0.042426,0.011476,0.10149,0.2584,0.13734,0.10318,0.25943,0.28884,0.37561,0.45706,0.24608,0.16706,0.34107,0.2623,0.22048,0.36496,0.28835,0.28828,0.40273,0.36496,0.43109,0.47695,0.34008,0.48675,0.74088,0.60662,0.64532,0.88256,0.70574,0.5607,0.53815,0.42586,0.5964,0.77936,0.73281,0.62376,0.49063,0.43945,0.25488,0.1975,0.40072,0.24904,0.20962,0.36496,0.12984,0.24432,0.58525,0.54764,1.0933,2.1508,2.3851,1.9939,1.7603,1.2692,0.3991
-1,0.52641,1.0079,1.7899,2.358,2.3015,2.087,1.9676,1.5141,0.75045,0.1154,-0.22784,-0.20111,0.001406,-0.090393,-0.36349,-0.43495,-0.42164,-0.3839,-0.2437,-0.2933,-0.59898,-0.7924,-0.79441,-0.74223,-0.70061,-0.84146,-1.1115,-1.1893,-1.1721,-1.3322,-1.5126,-1.5604,-1.6295,-1.7536,-1.8153,-1.8172,-1.8184,-1.8307,-1.8101,-1.6991,-1.5458,-1.4567,-1.4365,-1.4095,-1.2618,-0.91441,-0.52657,-0.39644,-0.50147,-0.45029,-0.13147,0.069686,0.045052,0.12484,0.26295,0.24281,0.30902,0.45918,0.29894,0.096623,0.32106,0.55118,0.35607,0.19536,0.41528,0.57291,0.41172,0.33066,0.45351,0.45864,0.39882,0.49401,0.60766,0.63189,0.59524,0.53275,0.60444,0.6879,0.54609,0.58014,0.94055,1.0175,0.88871,1.029,1.0391,0.77887,0.77956,0.85121,0.65956,0.63127,0.83081,0.82709,0.73991,0.82409,0.80694,0.49505
1,-0.36808,-0.62198,-0.60142,-0.62829,-0.61144,-0.39257,-0.32274,-0.57912,-0.89649,-0.99485,-0.81096,-0.74245,-1.0151,-1.0731,-0.85638,-1.0931,-1.5145,-1.3942,-1.1909,-1.5411,-1.8867,-1.7608,-1.9166,-2.0768,-1.7355,-1.9185,-2.1974,-1.7579,-1.519,-1.5855,-1.3945,-1.0033,-0.69067,-0.48888,-0.1174,0.25205,0.15335,0.13985,0.55046,0.54732,0.3191,0.50851,0.6245,0.59734,0.61482,0.47971,0.46921,0.63921,0.49067,0.33889,0.51169,0.58298,0.50137,0.44553,0.49031,0.57064,0.54944,0.62268,0.70378,0.70743,0.83658,0.97671,1.0447,1.1005,1.1871,1.285,1.2504,1.1659,1.0236,0.81085,0.69146,0.56948,0.58942,0.70348,0.68205,0.5981,0.2366,0.11398,0.39492,0.34854,0.38971,0.45654,0.15366,0.18118,0.36646,0.29835,0.55686,0.96894,1.3548,2.1902,2.4655,1.6467,0.92194,0.2702,-0.49064,-0.45251
1,0.087253,1.252,1.9707,1.7369,1.3942,-0.28091,-0.36112,0.8225,0.057915,0.019469,0.21849,-0.68816,-0.93546,-0.99011,-1.0866,-1.1528,-1.2421,-1.2979,-1.3146,-1.3549,-1.4753,-1.4923,-1.5284,-1.6943,-1.7821,-1.7944,-1.8748,-2.025,-2.011,-2.0139,-2.1668,-2.0969,-1.8472,-1.7564,-1.5339,-1.1442,-0.8036,-0.43019,-0.12211,0.18943,0.44924,0.51024,0.64912,0.74644,0.65568,0.58777,0.60879,0.66037,0.42151,0.42654,0.6049,0.52182,0.57141,0.58367,0.57612,0.58777,0.63384,0.58023,0.4945,0.45596,0.54474,0.52592,0.38215,0.43977,0.52712,0.50141,0.41954,0.3813,0.4218,0.38076,0.44103,0.55043,0.46371,0.42801,0.72512,0.86005,1.0087,1.0244,0.86486,0.87815,0.69028,0.6368,0.70271,0.55506,0.34564,0.55502,0.74035,0.44952,0.47831,0.56835,0.65438,0.53082,0.64065,0.73918,0.51967,0.64716
1,0.47041,1.1748,2.2215,3.9039,2.788,1.0087,-0.58597,-1.1148,-0.1252,0.11704,0.2018,-0.38599,-0.20847,0.25845,-0.29346,-0.10048,-0.44662,-0.94101,-0.71327,-0.80758,-0.95976,-1.023,-1.2077,-1.2411,-1.3355,-1.5214,-1.5576,-1.5766,-1.7348,-1.9569,-1.7296,-2.0989,-1.7149,-1.7751,-1.6744,-1.3308,-1.2738,-0.66548,-0.69212,-0.25276,0.077725,0.041614,0.47523,0.80392,0.9185,1.1075,0.77581,1.0528,1.012,0.72444,0.95484,0.6382,0.80321,0.80865,0.35049,0.59308,0.81394,0.63893,0.46193,1.395,0.2408,0.058936,0.80172,0.060675,0.56301,0.38523,0.10923,0.47035,0.16642,0.18779,0.43108,0.33408,0.30683,0.80995,1.1522,0.54083,0.90571,0.73703,0.055854,0.20591,-0.015737,0.090975,-0.22159,-0.28046,-0.44835,-0.041018,0.037214,-0.19196,-0.33126,-0.057072,-0.044219,-0.21301,-0.14714,-0.14603,0.086343,-0.14779
-1,1.3511,2.8253,2.6405,1.2186,-0.056742,1.197,0.72468,0.96665,0.54982,-0.9886,-1.0897,-1.3796,-1.4933,-1.5359,-1.6086,-1.7979,-1.8714,-1.8084,-1.9634,-1.8675,-1.9725,-1.974,-1.8119,-1.7761,-1.6585,-1.5791,-1.209,-0.95652,-0.57893,0.0091407,0.41393,0.79694,1.1533,1.3466,1.5806,1.6579,1.5706,1.4357,1.371,1.1873,0.97516,0.90662,0.80631,0.79697,0.60694,0.6441,0.43639,0.41734,0.39733,0.27775,0.35636,0.22354,0.21888,0.21645,0.22628,0.051749,0.05749,0.14059,0.0081305,-0.013383,0.042685,0.062065,-0.057979,-0.055662,0.062631,-0.15102,0.016423,0.032865,-0.14212,-0.043955,0.0019502,-0.02324,-0.043993,0.028251,-0.03734,-0.011156,0.0041187,0.0062361,0.22729,0.37902,0.40506,0.19952,0.29168,-0.027799,-0.19869,-0.17074,-0.28446,-0.15061,-0.262,-0.22242,-0.27178,-0.065168,-0.15399,-0.099545,-0.072255,0.015933
1,0.47528,1.3431,2.7848,2.8878,1.55,-0.40539,-0.024368,1.0566,0.76472,1.0003,0.61892,-0.2631,-0.57271,-0.68381,-0.85529,-0.87182,-0.97463,-1.068,-1.0048,-1.1565,-1.2207,-1.3067,-1.4449,-1.4511,-1.6627,-1.7536,-1.7558,-1.927,-2.0733,-2.1305,-2.1626,-2.1702,-2.0143,-1.7349,-1.472,-1.1195,-0.67855,-0.24605,0.17243,0.48752,0.72219,0.87896,0.8577,0.8947,0.93046,0.74776,0.67615,0.71573,0.69378,0.65056,0.65601,0.69737,0.72207,0.74481,0.6891,0.6817,0.70529,0.67209,0.66612,0.60663,0.68662,0.53906,0.47444,0.55984,0.41717,0.43373,0.40079,0.32196,0.34979,0.33543,0.22771,0.19367,0.22742,0.17552,0.34751,0.61978,0.67847,0.56769,0.45224,0.39666,0.21913,0.042418,0.0088996,0.035966,-0.062249,-0.099532,0.04216,-0.051857,-0.067828,0.01017,-0.019264,-0.057952,-0.077762,0.075638,0.080578,-0.029783
1,0.66923,0.64016,0.33816,0.28531,-0.13127,-0.28827,-0.3379,-0.77755,-0.72412,-0.70891,-0.90083,-0.92682,-1.2062,-1.2043,-1.2901,-1.4926,-1.4695,-1.6203,-1.9642,-2.1405,-2.2356,-2.1912,-2.4191,-2.3834,-2.3353,-2.4091,-1.7281,-1.5081,-1.1367,-0.59679,-0.42528,0.049137,0.33934,0.59512,0.81456,0.51347,0.74094,0.82628,0.52164,0.69542,0.64174,0.57679,0.58165,0.62701,0.64005,0.6336,0.45196,0.75508,0.64088,0.52538,0.66579,0.42517,0.56961,0.63777,0.45642,0.18158,0.47895,0.46425,0.37113,0.5709,0.15883,0.52239,0.56684,0.06108,0.47445,0.34933,0.24238,0.60357,0.61055,0.78139,1.0117,0.57541,0.33857,0.60342,0.29554,0.21154,0.4184,0.088503,0.18172,0.33435,0.027674,0.29401,0.32949,-0.030629,0.38243,0.22033,0.21025,0.15923,0.27206,0.41076,1.0622,2.5428,2.1922,1.5475,0.90299,-0.32567
1,1.1949,2.1908,2.4433,2.0008,1.005,0.18299,0.84161,1.3159,1.0808,1.349,1.1474,0.31794,-0.39568,-0.52295,-0.58801,-0.73069,-0.81045,-0.89689,-0.96893,-1.1617,-1.2225,-1.2841,-1.4718,-1.6613,-1.9442,-2.0391,-2.1801,-2.4142,-2.4478,-2.4449,-2.2974,-2.1031,-1.8771,-1.5395,-1.1415,-0.8126,-0.49508,-0.17519,0.074941,0.30021,0.40395,0.46493,0.506,0.57275,0.51675,0.51726,0.51176,0.44605,0.46327,0.4778,0.50614,0.52308,0.4909,0.55359,0.5794,0.51088,0.5768,0.55858,0.5438,0.54597,0.4531,0.47026,0.51533,0.39092,0.40203,0.39944,0.33478,0.39259,0.28207,0.31199,0.34735,0.35168,0.51549,0.60228,0.65119,0.63262,0.40999,0.36886,0.31357,0.13938,0.093671,0.077365,0.12533,0.060442,0.083074,0.054985,0.061965,0.08667,0.065612,0.0032298,0.10953,0.060001,0.040453,0.069218,0.17855,0.45655
-1,0.20304,0.46208,0.74837,0.99696,0.99855,0.84949,0.8757,1.0093,0.80807,0.16129,-0.41906,-0.45016,-0.21226,-0.33519,-0.74454,-0.84188,-0.59821,-0.46744,-0.54608,-0.69481,-0.85634,-0.90661,-0.85141,-0.7672,-0.5001,-0.26797,-0.61161,-1.1419,-1.1068,-0.91681,-1.1134,-1.1243,-0.63092,-0.41757,-0.83858,-1.1334,-0.92595,-0.82738,-1.0968,-1.2912,-1.3831,-1.6019,-1.6551,-1.4482,-1.4094,-1.5045,-1.3607,-1.1107,-0.99066,-0.86474,-0.66534,-0.53174,-0.45641,-0.29352,-0.048335,0.14321,0.26845,0.37449,0.43712,0.5203,0.64595,0.62296,0.4756,0.46532,0.51373,0.43557,0.41167,0.5066,0.43468,0.2151,0.2123,0.38697,0.33386,0.11875,0.19977,0.47825,0.5216,0.41186,0.33926,0.23283,0.2521,0.43315,0.35764,0.17874,0.37737,0.57205,0.49869,0.74313,1.364,1.9802,2.7125,3.2699,3.0704,2.516,1.9309,0.88439
1,0.46679,0.50363,0.78867,0.22294,0.5373,0.043553,-0.26114,0.80316,-0.13952,-0.61216,-0.32442,-0.16722,-0.21054,-0.9579,-0.096173,-0.31173,-0.74358,-0.8732,-1.0823,-0.63933,-1.4214,-1.8848,-0.75448,-1.2973,-2.541,-2.3123,-2.0156,-2.2682,-2.6172,-2.4111,-2.182,-2.1904,-2.1645,-1.7266,-1.1703,-1.2693,-1.1404,-0.22605,0.29835,0.22686,0.39091,0.71562,0.77004,0.86563,1.0803,1.0446,0.7044,0.84999,1.2178,0.76011,0.46583,0.91208,0.93517,0.63412,0.59564,0.70628,0.91283,0.82768,0.61224,0.95405,0.97561,0.63,0.53994,0.48173,0.66094,0.78531,0.82605,0.64013,0.2775,0.50912,0.69917,0.74422,0.033625,0.4707,0.77461,0.27926,0.44518,0.18206,0.68916,0.6244,-0.097794,0.49746,0.35,0.34934,0.32493,0.59796,1.002,0.67441,0.73932,0.54086,0.34583,0.77773,0.24813,0.0042835,0.42519,0.11738
1,0.15058,1.6566,2.7068,2.6687,2.1616,0.45358,-1.1248,-0.035756,0.71934,0.1692,0.52592,0.6446,-0.032198,-0.65313,-0.64744,-0.99855,-0.98739,-1.2348,-1.1689,-1.1326,-1.2814,-1.2023,-1.3473,-1.4706,-1.6609,-1.7333,-1.6762,-1.7229,-1.9568,-2.0945,-1.9966,-1.8874,-1.9523,-1.5934,-1.4014,-1.356,-0.95886,-0.4833,-0.044625,0.13144,0.34893,0.65346,0.92828,0.9035,0.97049,1.0221,1.077,0.97307,0.92998,0.84903,0.76882,0.75622,0.6561,0.81249,0.72485,0.60644,0.53883,0.59598,0.76609,0.65196,0.58152,0.50955,0.61453,0.6888,0.39053,0.30701,0.33509,0.4243,0.3665,0.16734,0.41285,0.53834,0.37945,0.5448,0.75414,0.71927,0.50206,0.30988,0.24499,0.18706,0.022709,-0.1909,-0.08909,-0.035984,-0.13562,0.038921,-0.11521,-0.22758,-0.12843,-0.16193,-0.014223,-0.10071,0.10191,0.012288,-0.10411,0.46355
1,-0.15739,0.73698,2.4996,3.0521,1.628,-0.36094,-1.227,-0.090289,0.46134,0.26395,0.37288,0.10955,-0.61703,-1.2406,-0.6376,-1.1867,-1.1788,-1.3022,-0.99206,-1.0044,-1.2935,-1.4487,-1.7159,-1.4317,-1.4991,-1.5586,-1.8568,-2.0151,-1.7349,-1.6265,-1.9219,-2.0578,-1.6868,-1.4646,-1.3868,-1.1051,-0.60325,-0.28382,0.01853,0.3098,0.61015,1.189,0.89323,0.98472,1.2,1.1368,1.1378,1.124,1.0166,0.9505,1.0064,0.89311,0.65362,0.88646,0.94862,0.54315,0.8548,0.44309,0.35908,1.0433,0.82766,0.29923,0.49137,0.62283,0.24475,0.51546,0.50933,0.25764,0.54448,0.10467,0.30479,0.29124,0.061505,0.48884,0.48157,0.764,0.57886,0.65466,0.5788,-0.057641,0.33895,0.1321,0.076899,-0.05898,-0.076749,-0.022102,-0.16132,0.068656,0.19215,-0.051264,0.068644,-0.017256,0.01651,0.14905,-0.026306,0.16546
1,0.65657,2.4395,3.7687,2.5048,2.0811,0.58787,-1.0528,0.09188,0.99215,0.23874,0.20619,0.55427,-0.48057,-0.60856,-0.63123,-0.75098,-0.91056,-1.1746,-0.95276,-1.174,-1.2249,-1.0881,-1.3026,-1.3779,-1.5876,-1.7172,-1.7042,-1.7736,-1.8052,-1.6336,-1.8505,-1.767,-1.65,-1.4334,-1.0456,-0.95911,-0.65109,-0.29492,0.085521,0.37742,0.46233,0.76959,0.90869,1.0654,1.0119,0.88327,1.1872,0.89356,0.72847,0.94516,0.5986,0.55622,0.69009,0.62736,0.59537,0.56439,0.73411,0.63819,0.51245,0.64747,0.75773,0.3592,0.59308,0.57324,0.18039,0.54498,0.33009,0.26131,0.34823,0.15802,0.20835,0.14473,0.30454,0.57924,0.58703,0.42328,0.67516,0.32829,-0.096944,0.044244,-0.12724,-0.11494,-0.28178,-0.14774,-0.28583,7.0281e-005,-0.39,-0.47257,-0.10796,-0.42759,-0.37008,-0.35622,-0.42783,-0.37963,-0.35769,-0.059085
1,1.2571,2.781,3.2871,2.7004,0.86951,0.75424,1.5213,1.0206,1.033,0.91998,0.0040309,-0.43283,-0.43524,-0.64468,-0.80723,-0.78745,-0.89935,-0.99303,-1.1099,-1.1504,-1.2723,-1.3851,-1.4737,-1.5216,-1.6191,-1.8409,-1.7669,-1.9956,-2.1403,-1.9179,-1.9873,-1.8178,-1.7714,-1.4208,-0.99478,-0.73745,-0.36326,0.011137,0.37642,0.45804,0.68402,0.78141,0.8042,0.77813,0.86546,0.73073,0.58541,0.65586,0.60165,0.60568,0.53662,0.53258,0.63598,0.531,0.5595,0.54941,0.5006,0.49217,0.42445,0.46237,0.33621,0.35603,0.43533,0.34044,0.28558,0.23317,0.31345,0.30002,0.17778,0.16157,0.22714,0.15109,0.12897,0.32106,0.55904,0.60962,0.5414,0.39575,0.21263,0.077602,0.06243,0.043607,-0.12017,-0.13751,-0.13823,-0.097823,-0.35763,-0.23568,-0.12331,-0.22418,-0.22646,-0.20709,-0.10117,-0.31392,-0.16804,0.15668
1,0.18825,0.54012,2.1784,3.4938,2.0753,1.2103,-0.26733,-0.86686,0.2834,0.40012,0.14208,0.092882,0.18241,-0.69089,-0.81472,-0.95037,-1.1111,-1.1943,-1.1334,-1.1824,-1.2968,-1.3465,-1.4018,-1.5283,-1.676,-1.6818,-1.694,-1.7276,-2.075,-1.9527,-1.9091,-2.0473,-1.965,-1.7382,-1.3949,-1.3244,-0.8244,-0.31299,-0.15902,0.28845,0.48422,0.81594,0.93326,0.86988,1.0164,1.0749,0.98014,0.9465,0.85434,0.73572,0.71869,0.65853,0.68489,0.70924,0.5657,0.5582,0.56667,0.58567,0.58358,0.44769,0.57826,0.52547,0.45306,0.47657,0.35519,0.45572,0.49012,0.38348,0.22396,0.33298,0.41315,0.10551,0.55241,0.79898,0.66882,0.81493,0.57742,0.44012,0.35085,0.18347,0.23293,0.14886,0.025795,-0.088938,0.10615,0.23085,0.078554,0.05938,0.001421,0.041702,0.16333,-0.14498,-0.033069,0.22011,0.049481,0.12923
1,0.53474,1.1512,2.6654,4.1776,2.9169,1.4788,0.13562,-0.63418,0.37589,0.90808,0.58484,0.27323,0.3903,0.088883,-0.37684,-0.51716,-0.68467,-0.7512,-0.83014,-0.72801,-0.91879,-1.187,-0.83873,-0.98958,-1.3975,-1.302,-1.4222,-1.6338,-1.6512,-1.7824,-1.8822,-1.9509,-1.8056,-1.7426,-1.4715,-1.4032,-1.1495,-0.75587,-0.56482,0.058797,0.04651,0.045873,0.48199,0.77538,0.56919,0.91359,0.95469,1.0054,1.0378,0.80607,0.85119,0.82395,0.71311,0.6045,0.72207,0.57987,0.52553,0.49672,0.62104,0.5106,0.64136,0.55111,0.33227,0.77309,0.36451,0.15512,0.60078,0.11596,-0.0052226,0.16481,0.048157,0.045532,0.066651,0.23052,0.60323,0.71239,0.4991,0.27301,0.14205,0.071577,0.055745,-0.14894,-0.32041,-0.2032,-0.3765,-0.39702,-0.18855,-0.55105,-0.22709,-0.53983,-0.23208,0.1095,-0.68769,-0.31635,-0.4329,-0.3836
-1,2.0413,2.0216,1.9259,2.3344,1.1739,-0.45255,-0.72809,-0.97287,-1.133,-1.3084,-1.4269,-1.3778,-1.4946,-1.6392,-1.6507,-1.6371,-1.7475,-1.7958,-1.8924,-1.8623,-2.0315,-2.0182,-1.8819,-1.8788,-1.7021,-1.6389,-1.3706,-1.0745,-0.77578,-0.3258,0.10598,0.41984,0.55781,0.66172,0.74205,0.7688,0.88773,0.93061,0.89279,0.82587,0.71323,0.63487,0.58141,0.55861,0.51887,0.54623,0.46277,0.3871,0.49855,0.4585,0.38337,0.46244,0.52128,0.5429,0.70445,0.81087,0.84129,0.85245,0.69108,0.74737,0.79266,0.82489,0.73356,0.54221,0.43989,0.17819,0.067929,-0.042476,-0.0067942,0.015048,-0.049013,-0.094704,-0.11402,-0.0011615,-0.083852,-0.093967,-0.078749,0.000196,-0.087712,-0.093444,-0.057698,-0.060419,-0.057214,-0.11642,-0.024919,0.08891,0.11528,0.066654,0.10396,0.23877,0.30621,0.33757,0.75527,0.86794,0.83823,1.3587
1,0.58598,1.1372,1.2908,1.3359,1.2572,0.0056128,-0.8532,-0.85409,-0.95445,-0.7457,-0.90665,-1.1693,-1.2278,-1.4457,-1.3641,-1.4457,-1.6623,-1.5051,-1.6768,-1.8241,-1.6514,-1.8308,-1.6389,-1.7126,-1.999,-1.7098,-1.6748,-1.241,-0.94469,-0.98619,-0.68197,-0.18182,0.041145,0.26965,0.48887,0.50861,0.8144,0.90454,0.84133,0.99912,0.70654,0.64985,0.78087,0.81487,0.8736,0.23949,0.97886,0.84852,0.27916,0.46947,0.5539,0.74572,0.54018,0.66707,0.43675,0.62178,0.44374,0.3734,0.47644,0.387,0.77528,0.37837,0.13612,0.19337,0.21531,0.68831,0.86514,1.104,0.53106,0.20986,0.4704,0.13428,0.051554,0.50462,-0.10775,-0.28093,-0.097979,-0.0090137,0.083351,-0.27151,-0.17289,-0.1563,-0.057781,-0.19681,-0.35655,-0.24018,-0.028156,-0.25056,0.50802,1.3931,2.4379,2.9101,1.9735,-0.048712,-1.5273,-0.24102
1,0.99971,2.7912,3.6557,2.471,1.4594,0.33317,0.55049,1.4679,1.2131,1.0814,0.99656,0.46237,-0.36151,-0.50391,-0.57443,-0.62492,-0.71273,-0.87725,-0.86311,-0.94895,-1.0919,-1.1544,-1.1557,-1.2367,-1.4393,-1.5329,-1.5506,-1.6974,-1.929,-1.8859,-1.9789,-1.9855,-1.9681,-1.8771,-1.6103,-1.4228,-1.0421,-0.65191,-0.38674,-0.02474,0.34191,0.53081,0.5239,0.71934,0.83719,0.74033,0.75742,0.7084,0.6771,0.59962,0.52902,0.61908,0.59181,0.50107,0.51124,0.55878,0.44074,0.48503,0.50189,0.46096,0.39988,0.40445,0.40629,0.37917,0.32234,0.28236,0.35485,0.21422,0.18783,0.29085,0.16448,0.1095,0.15207,0.19934,0.29968,0.48495,0.60301,0.60672,0.43018,0.23114,0.22701,0.051546,-0.10723,-0.09565,-0.1572,-0.19615,-0.11021,-0.19872,-0.21875,-0.22578,-0.28857,-0.16004,-0.24255,-0.3107,-0.26484,-0.25434
1,1.6163,2.0997,1.7879,1.3281,0.75939,0.23036,-0.18072,-0.15455,0.030906,-0.075155,-0.33687,-0.23652,0.017446,0.031067,-0.11954,-0.4261,-0.78788,-0.83316,-0.69918,-0.78688,-0.91889,-0.84978,-0.82127,-0.94244,-0.95807,-0.90753,-1.0062,-1.126,-1.2266,-1.3746,-1.3621,-1.2955,-1.4604,-1.6102,-1.6206,-1.6907,-1.721,-1.682,-1.6997,-1.6466,-1.5376,-1.5191,-1.4401,-1.2365,-1.0722,-0.96043,-0.82815,-0.62651,-0.38727,-0.2529,-0.15906,0.025741,0.14107,0.17094,0.30806,0.41424,0.37437,0.42254,0.55083,0.51762,0.41465,0.4623,0.56862,0.54403,0.46028,0.48357,0.53348,0.48241,0.44587,0.45747,0.41793,0.47211,0.62716,0.59304,0.48837,0.57182,0.70816,0.85056,0.99247,0.98314,1.007,1.2195,1.3548,1.3755,1.4533,1.4662,1.3768,1.3916,1.4369,1.2659,1.1425,1.3269,1.4148,0.80763,0.11649,0.036515
1,0.29477,0.86093,2.4192,3.4521,2.0206,-0.01906,-0.99336,-0.10653,0.54714,0.37581,0.47277,0.27377,-0.23721,-0.94234,-0.68503,-0.94912,-1.0395,-1.169,-1.1913,-0.90592,-1.3047,-1.4367,-1.4287,-1.6121,-1.6179,-1.7272,-1.6543,-1.8647,-2.0437,-1.7882,-1.9843,-2.1426,-1.4607,-1.7978,-1.4781,-1.2309,-0.79822,-0.023288,-0.47024,0.15581,0.59327,0.79328,0.88353,0.98733,1.1384,0.98232,1.001,0.83164,0.90999,0.84625,0.64582,0.69678,0.69268,0.81808,0.50116,0.57805,0.64159,0.65313,0.47728,0.49205,0.76713,0.53486,0.42847,0.50443,0.368,0.27068,0.35392,0.36476,0.16524,0.2495,0.23826,0.34176,0.30404,0.66176,0.93489,0.59311,0.57687,0.47873,0.38042,0.3898,0.055126,0.048534,0.023727,0.01843,0.37603,-0.0049701,-0.16131,0.081796,0.11986,-0.23885,0.19562,0.078486,-0.15695,0.16256,-0.0061831,0.56792
1,0.58074,1.0971,1.7441,2.2784,2.3895,2.3484,1.9432,1.2775,0.65341,0.081748,0.09201,0.27165,-0.22371,-0.31929,0.15734,0.033267,-0.2766,-0.41547,-0.7077,-0.77988,-0.70635,-0.82926,-0.88312,-0.78555,-0.81218,-1.1596,-1.4025,-1.1439,-1.1506,-1.6303,-1.6775,-1.5217,-1.7507,-1.9909,-2.0863,-2.0732,-1.9116,-1.8445,-1.8267,-1.7048,-1.5925,-1.4082,-1.0672,-0.7324,-0.61405,-0.62366,-0.30255,0.11621,0.055412,0.066443,0.42332,0.45323,0.30669,0.35922,0.36961,0.38301,0.47176,0.4611,0.37373,0.29326,0.2857,0.33949,0.36271,0.38575,0.37505,0.32928,0.36494,0.3674,0.35875,0.52163,0.62975,0.63745,0.82012,1.0291,1.0708,1.0506,0.9306,0.71313,0.68223,0.7302,0.60472,0.65791,0.79018,0.59637,0.5033,0.51486,0.3625,0.41891,0.43684,0.23027,0.30667,0.41881,0.28308,0.28667,0.32965,0.14763
1,0.38124,0.63353,1.0023,1.5213,1.8639,1.7928,1.3812,0.85684,0.26386,-0.15281,-0.13036,0.08406,0.034076,-0.18461,-0.24719,-0.19187,-0.10236,-0.10079,-0.38137,-0.63136,-0.60607,-0.64048,-0.70422,-0.63249,-0.74385,-0.96885,-0.94665,-0.84191,-0.85263,-0.91512,-1.0706,-1.3026,-1.3943,-1.3316,-1.3642,-1.5447,-1.6771,-1.717,-1.7519,-1.7531,-1.7431,-1.8213,-1.8324,-1.6011,-1.3414,-1.222,-1.1242,-1.0325,-0.93562,-0.69685,-0.37408,-0.13286,0.013064,0.13763,0.30735,0.47997,0.58141,0.67917,0.79152,0.81584,0.78038,0.77843,0.81247,0.86142,0.85234,0.78723,0.79793,0.82803,0.8057,0.80673,0.75092,0.70935,0.82109,0.76975,0.59721,0.75976,0.96384,0.8754,0.8251,0.86681,0.85296,0.86425,0.89556,1.0138,1.1454,1.041,1.0541,1.3495,1.4364,1.3002,0.95297,0.35398,-0.037793,-0.60937,-1.4741,-1.07
1,0.31453,1.9124,2.9334,1.5789,1.3518,0.028089,-1.2633,0.032858,0.40004,-0.20064,0.065544,0.20951,-0.69548,-1.0078,-0.94276,-1.1275,-1.0952,-1.0952,-1.2995,-1.4564,-1.3409,-1.2609,-1.5417,-1.6982,-1.6537,-1.6825,-1.8681,-2.0167,-1.9485,-2.0688,-2.1358,-1.9865,-1.5472,-1.6836,-1.5097,-0.86883,-0.80272,-0.32873,-0.13564,0.14102,0.66482,0.51546,0.87495,0.71135,1.0103,0.84587,0.64721,1.1717,0.54904,0.79366,0.78514,0.34467,0.78651,0.48573,0.68113,0.60323,0.62542,0.55097,0.55788,0.59327,0.63621,0.84051,0.3619,0.44499,0.73681,0.33687,0.55244,0.37112,0.37066,0.68026,0.081467,0.45536,0.44991,0.43518,1.0397,0.63468,0.94195,1.0765,0.40302,0.5031,0.40319,0.18812,0.14261,0.20687,0.16985,0.17912,0.47275,0.21595,-0.0015606,0.26101,0.33201,0.19581,0.27623,0.39962,0.36898,0.33294
-1,0.31422,0.78106,1.205,1.5347,1.8773,2.1582,2.103,1.6779,1.1687,0.68954,0.16296,-0.22587,-0.26498,-0.17854,-0.21715,-0.2391,-0.095148,0.067183,0.044739,-0.1924,-0.52252,-0.75271,-0.76337,-0.67794,-0.70799,-0.83776,-0.89701,-0.89568,-0.96265,-1.0852,-1.1787,-1.2381,-1.3117,-1.4526,-1.6413,-1.7848,-1.8723,-1.8907,-1.7788,-1.7102,-1.8413,-1.8898,-1.7258,-1.6545,-1.6172,-1.3333,-1.0711,-1.0533,-0.9457,-0.64809,-0.46395,-0.44029,-0.37801,-0.17974,0.068042,0.16977,0.13236,0.20541,0.39916,0.49643,0.51252,0.56105,0.60313,0.65652,0.74428,0.74382,0.66879,0.67558,0.72365,0.72222,0.77218,0.88719,0.88715,0.77645,0.76293,0.81155,0.68923,0.483,0.53688,0.82934,0.96538,0.89003,0.90713,0.95209,0.78116,0.64019,0.71962,0.69282,0.53891,0.61208,0.73608,0.5712,0.44657,0.67155,0.78798,0.40137
-1,0.65174,1.237,2.1094,1.4324,0.7867,-0.45946,-0.3633,-0.55752,-1.1959,-0.82497,-0.78617,-1.2287,-1.3206,-1.3831,-1.3137,-1.3089,-1.4952,-1.6645,-1.658,-1.8051,-1.9127,-2.3295,-2.5095,-2.4365,-2.2523,-2.6019,-1.7742,-1.6681,-1.5599,-0.66048,-0.87373,-0.34851,-0.069974,-0.15228,-0.10986,0.32801,0.2119,-0.0074186,0.38776,0.1401,0.21025,0.32263,0.44522,0.38708,0.47891,0.62107,0.57922,0.69961,0.91671,0.69036,0.78868,0.8763,0.83114,0.7984,0.74893,0.55055,0.56324,0.98123,0.46066,0.6244,0.62939,0.64997,0.37188,0.69082,0.50977,0.57866,0.44904,0.5017,0.55146,0.51848,0.47136,0.59086,0.52548,0.5671,0.60085,0.59997,0.37193,0.77951,0.81321,0.81717,0.85719,0.57841,0.7958,0.39816,0.46658,0.51741,0.35107,0.33965,0.27755,0.66993,0.39167,0.50668,-0.10258,0.29257,0.45394,0.38969
1,0.53581,0.60077,2.1159,3.3481,2.0451,1.4416,0.10484,-0.093578,1.0806,0.99425,0.99555,0.87982,0.72864,-0.35933,-0.86489,-0.70355,-0.89332,-0.99962,-1.0895,-1.0715,-1.0801,-1.3339,-1.3746,-1.4982,-1.5102,-1.5827,-1.8217,-1.6917,-1.8294,-1.8668,-1.9627,-1.9314,-1.7372,-1.8744,-1.6583,-1.2063,-0.98844,-0.67383,-0.31351,0.048131,0.36885,0.56314,0.71851,0.90009,1.0479,1.043,0.89953,1.0279,1.0264,0.91264,0.62389,0.77581,0.90055,0.51607,0.84117,0.57778,0.53402,0.80116,0.68692,0.58087,0.49763,0.4502,0.52066,0.45495,0.38716,0.3048,0.21446,0.20228,0.24764,0.22296,-0.040042,0.21031,0.10011,0.51043,0.57269,0.48502,1.1682,0.74938,0.044945,-0.066675,-0.084066,-0.044295,-0.21688,-0.19061,-0.1558,-0.34513,-0.16216,-0.047013,-0.4394,-0.33468,-0.18829,-0.25589,-0.1522,-0.24433,-0.34811,-0.28286
-1,1.4684,3.2539,3.5995,2.3934,0.41738,1.0715,1.6859,1.5729,1.7089,1.0321,0.053074,-0.5084,-0.47231,-0.70552,-0.78626,-0.94317,-1.0634,-1.1682,-1.1559,-1.2921,-1.4191,-1.485,-1.6274,-1.8021,-1.8703,-1.9728,-2.0737,-2.0546,-1.9236,-1.7611,-1.5645,-1.1734,-0.64637,-0.29917,0.033867,0.43857,0.55742,0.83684,0.86219,0.86332,0.73374,0.74286,0.71256,0.56799,0.5533,0.63971,0.53078,0.52132,0.48752,0.42475,0.2927,0.41496,0.36965,0.15176,0.18999,0.20083,0.09721,0.037614,0.11254,0.033238,-0.023673,0.050144,0.020956,-0.095083,-0.039961,0.039653,0.030251,-0.13016,0.11556,-0.014237,-0.12021,0.070485,-0.013129,-0.063535,-0.060069,0.2016,0.12561,0.35962,0.48613,0.22319,0.23449,0.28243,-0.13581,-0.18728,-0.10947,-0.20504,-0.11603,-0.17146,-0.15398,-0.25852,-0.087436,-0.068081,-0.10364,-0.10245,-0.021531,0.14479
-1,1.4509,2.5571,1.9919,1.4861,1.7355,1.3384,0.26275,-0.11487,0.19743,0.42181,0.58533,0.62372,0.45377,0.54675,0.54709,-0.025421,-0.39922,-0.36482,-0.44704,-0.49995,-0.51412,-0.69395,-0.80428,-0.71845,-0.63898,-0.72437,-0.88548,-0.92902,-0.86621,-0.87417,-0.96963,-1.0135,-1.0535,-1.1475,-1.157,-1.1378,-1.215,-1.279,-1.3087,-1.327,-1.3012,-1.3009,-1.3135,-1.3499,-1.4159,-1.3829,-1.417,-1.4539,-1.1305,-0.84331,-0.79132,-0.51435,-0.22593,-0.13826,0.087944,0.36954,0.47582,0.40274,0.22281,0.15902,0.23352,0.29104,0.31631,0.26957,0.18663,0.18942,0.20436,0.15763,0.11163,0.078061,0.037505,-0.0081912,0.010155,0.093522,0.042216,-0.056904,0.043027,0.15675,0.15283,0.14486,0.1045,0.12606,0.20116,0.1751,0.19125,0.21765,0.26097,0.58208,1.0849,1.8521,2.7459,2.8192,2.2613,2.1454,1.8596,0.49049
1,0.99311,2.7048,3.4733,2.2127,0.4533,0.047793,0.95956,1.1931,1.0075,0.99132,0.5782,-0.019753,-0.48965,-0.44229,-0.58496,-0.44436,-0.36682,-0.4038,-0.61566,-0.83379,-1.025,-1.2013,-1.3763,-1.4132,-1.4878,-1.7931,-1.8547,-2.0737,-2.0869,-2.0074,-2.1525,-2.0921,-2.0312,-1.8833,-1.5726,-1.3059,-1.002,-0.53302,-0.10067,0.10166,0.42403,0.65214,0.77169,0.91439,0.80432,0.80127,0.69083,0.61021,0.70913,0.65099,0.62584,0.63503,0.62785,0.67702,0.74059,0.76569,0.75748,0.63137,0.55038,0.57019,0.47303,0.38275,0.39918,0.33822,0.25163,0.23682,0.2102,0.19978,0.19538,0.15563,0.18673,0.15264,0.058321,0.14604,0.34331,0.44169,0.63962,0.6434,0.44977,0.4155,0.24084,0.11312,0.042859,-0.11644,-0.089543,-0.064283,-0.13243,-0.16535,-0.12308,-0.26684,-0.31281,-0.19857,-0.11995,-0.076979,-0.14542,-0.037778
-1,0.12378,2.4335,2.7624,2.396,2.1413,-0.4183,0.51695,0.34634,-0.024069,0.59782,-0.41035,-1.3712,-1.2627,-1.3411,-1.4394,-1.7023,-1.5347,-1.5868,-1.7685,-1.7812,-2.0252,-2.0039,-2.2033,-2.2882,-2.1056,-2.1817,-1.8756,-1.7191,-1.4309,-0.84221,-0.60268,-0.27167,0.043212,0.42844,0.41908,0.50986,0.73712,0.65138,0.50753,0.5484,0.48531,0.4425,0.4195,0.42099,0.44422,0.49148,0.34983,0.44493,0.30544,0.31988,0.34194,0.21074,0.19135,0.35678,0.14263,0.19375,0.30562,0.081876,0.12666,0.094116,0.1438,0.034176,0.14279,0.069115,0.22675,0.041044,0.20327,0.14643,0.096921,0.32242,0.039481,0.28112,0.18655,0.52756,0.30948,0.22119,0.40176,0.76149,0.84403,0.99665,1.0212,0.90252,0.60201,0.47199,0.45648,0.18362,0.2175,0.30317,0.27681,0.22811,0.41509,0.39852,0.13766,0.26363,0.5959,0.38788
1,1.8148,3.1168,2.7093,2.2894,0.7468,0.34331,1.3852,1.2284,1.2052,1.363,0.72878,0.16296,-0.0080553,-0.22322,-0.43116,-0.48352,-0.54671,-0.85696,-0.95103,-0.93979,-1.0726,-1.3601,-1.3414,-1.4051,-1.7154,-1.7594,-1.8844,-1.95,-2.1831,-2.1779,-2.1525,-2.0964,-2.0511,-1.8027,-1.4676,-1.2233,-0.78604,-0.38869,-0.070864,0.15872,0.39615,0.60076,0.50987,0.56991,0.68247,0.52126,0.4296,0.36043,0.3897,0.42091,0.38013,0.36077,0.31933,0.39644,0.38283,0.40484,0.58767,0.595,0.35284,0.59457,0.52693,0.50865,0.54273,0.37861,0.44005,0.33124,0.3136,0.44667,0.43036,0.18632,0.21795,0.1628,0.22911,0.29359,0.39369,0.55408,0.27941,0.28295,0.073871,-0.1796,0.020608,-0.15177,-0.02924,-0.096054,-0.078538,0.16678,0.0043439,-0.21733,0.094326,0.10021,-0.15029,0.029411,0.087804,-0.0024223,0.26675,0.3634
1,1.1686,1.8563,2.1545,2.3218,1.9164,1.2149,0.52682,0.30919,0.6178,0.76545,0.69202,0.83157,0.85853,0.37871,-0.21883,-0.5476,-0.57829,-0.57036,-0.82643,-1.0418,-0.79897,-0.79339,-1.1716,-1.2151,-1.3055,-1.5137,-1.4558,-1.6208,-1.812,-1.764,-2.0628,-2.2859,-2.1082,-2.1225,-2.1132,-1.937,-1.7961,-1.5181,-1.417,-1.2032,-0.48419,-0.24699,-0.21486,0.178,0.15327,0.34652,0.56022,0.43174,0.43293,0.31104,0.46511,0.80843,0.75978,0.55031,0.48885,0.72413,0.75093,0.63101,0.71782,0.61924,0.4763,0.62541,0.64716,0.53359,0.77103,0.80848,0.45094,0.57542,0.70452,0.60622,0.73263,0.61479,0.78328,0.90288,0.5817,0.64803,0.72286,0.54406,0.27845,0.11675,0.12645,0.15857,0.26966,-0.018007,0.013914,0.20245,-0.17802,-0.047374,-0.090093,-0.30913,-0.028713,0.0010402,-0.03145,-0.023117,-0.0096171,0.041113
1,2.1131,3.2391,2.5576,2.3157,1.0033,0.84966,1.6319,1.4243,1.3159,0.99924,0.20781,-0.42104,-0.46503,-0.60489,-0.64773,-0.81838,-0.9005,-0.89676,-0.94461,-1.0836,-1.2033,-1.225,-1.3277,-1.5291,-1.6049,-1.6701,-1.883,-1.9135,-1.9652,-2.0614,-2.0139,-1.9867,-1.7923,-1.5801,-1.329,-0.89652,-0.55238,-0.26008,0.051494,0.33432,0.52701,0.63982,0.72895,0.74236,0.6969,0.70679,0.61882,0.59308,0.60875,0.56288,0.60347,0.53785,0.51812,0.5963,0.52433,0.50674,0.50123,0.4816,0.47713,0.36448,0.42906,0.418,0.33308,0.28347,0.26305,0.24961,0.16097,0.19426,0.1633,0.17885,0.07681,0.06274,0.28174,0.44049,0.4788,0.5072,0.35508,0.16925,0.11047,0.021529,-0.085792,-0.13029,-0.11627,-0.18007,-0.16632,-0.14237,-0.1123,-0.083357,-0.1589,-0.062689,-0.057954,-0.15372,-0.10223,-0.11092,0.16934,0.31289
-1,-0.19441,-1.1007,-1.3216,-0.81488,-0.34072,-0.38421,-0.6235,-0.64221,-0.55257,-0.58375,-0.67414,-0.70857,-0.7342,-0.76711,-0.74069,-0.69701,-0.73889,-0.84595,-0.90055,-0.88965,-0.88328,-0.92933,-1.0131,-1.1151,-1.2142,-1.2802,-1.2905,-1.2989,-1.4081,-1.5917,-1.6842,-1.6191,-1.5579,-1.6148,-1.6867,-1.6488,-1.5526,-1.4599,-1.3188,-1.1241,-0.98348,-0.91711,-0.76622,-0.4358,-0.062335,0.14746,0.20885,0.29907,0.4815,0.61784,0.65201,0.70057,0.82487,0.92154,0.97288,1.0792,1.1797,1.1044,0.92291,0.86882,0.92704,0.92672,0.88343,0.89989,0.89992,0.84429,0.87548,0.98458,0.91121,0.64469,0.54624,0.74881,0.9048,0.76475,0.56709,0.63115,0.91369,1.16,1.25,1.2581,1.2938,1.3502,1.3011,1.0883,0.86683,0.81278,0.85455,0.81905,0.76498,0.8761,1.0859,1.1447,1.022,0.92983,0.96388,1.0142
1,0.73059,0.95465,2.7894,3.2344,2.1506,0.90709,0.41095,0.84252,0.99019,0.91588,0.60915,0.25079,-0.42776,-0.7315,-0.67576,-0.92615,-0.94313,-0.99804,-1.0255,-1.1094,-1.2708,-1.1802,-1.4133,-1.529,-1.4712,-1.6988,-1.6617,-1.7457,-1.9473,-1.9375,-2.0974,-2.0954,-1.8554,-1.8461,-1.7779,-1.2026,-0.75234,-0.49988,-0.037613,0.31937,0.61618,0.74958,0.87424,1.0046,0.89485,0.9815,0.89402,0.69173,0.64798,0.58825,0.66833,0.66425,0.52642,0.54798,0.62125,0.56069,0.49562,0.48645,0.6427,0.51214,0.39922,0.50185,0.449,0.35882,0.3632,0.36163,0.20058,0.25663,0.35496,0.16341,0.22644,0.14211,0.051816,0.33931,0.24507,0.53703,0.80713,0.63696,0.54242,0.36356,0.38021,0.090905,-0.060213,0.06696,-0.15598,-0.20974,-0.026554,-0.22865,-0.26106,-0.16066,-0.10491,-0.16148,-0.20261,-0.12652,-0.1171,0.058952
1,0.59401,1.1537,2.6052,3.1966,2.0619,0.19331,-0.39216,0.77476,0.74412,0.52829,0.60696,0.075758,-0.16263,-0.7577,-0.82669,-0.90467,-0.8649,-0.92723,-1.0822,-1.0179,-1.0157,-1.2161,-1.3557,-1.3605,-1.5027,-1.6789,-1.744,-1.8177,-1.9648,-1.9914,-2.1455,-2.0927,-1.8876,-1.9263,-1.7072,-1.4208,-1.2455,-0.8884,-0.47776,-0.099044,0.18899,0.4566,0.68389,0.9001,0.94101,0.94947,0.99893,0.94897,0.82744,0.78173,0.71189,0.64824,0.69262,0.56481,0.4946,0.65126,0.58689,0.39272,0.46809,0.59619,0.48343,0.52307,0.51375,0.43378,0.33661,0.31448,0.41624,0.27972,0.214,0.26662,0.43474,0.15539,0.21201,0.61498,0.71677,0.87342,0.75728,0.51954,0.54603,0.3522,0.24966,0.19694,0.091654,0.21049,-0.015256,0.095382,0.12206,-0.028834,0.059162,0.06378,0.062518,0.050871,-0.0039898,0.054531,0.17164,0.11086
-1,2.0394,1.8832,1.9093,2.4715,1.1181,0.044439,0.023782,-0.18546,-0.84123,-1.2108,-1.165,-1.3306,-1.4505,-1.6214,-1.5286,-1.6565,-1.8499,-1.4444,-1.8181,-1.7575,-1.55,-2.0486,-2.0674,-1.7514,-1.8899,-1.9402,-1.3924,-1.2765,-0.96958,-0.81354,-0.53409,0.1865,0.18892,0.52786,1.0166,0.98696,1.0381,0.90507,0.77315,1.1705,0.52911,0.65707,0.67813,0.51791,0.54166,0.47091,0.46794,0.59913,0.47388,0.50291,0.65982,0.38413,0.68219,0.75604,0.61436,0.98529,1.0581,0.85157,0.53874,0.9025,0.98809,0.65469,0.58384,0.22025,0.16773,-0.0078476,0.047374,-0.13177,-0.060788,0.07716,-0.29066,-0.096476,-0.17559,-0.17684,-0.26148,-0.3017,-0.15769,-0.16105,-0.27518,-0.37619,-0.10733,-0.06468,-0.20524,-0.087677,-0.08638,-0.088806,0.090497,0.058145,0.00035112,0.26841,0.55996,0.52745,0.51,0.67705,1.2486,1.3726
-1,0.46738,0.3401,0.35139,0.80989,1.2934,1.7335,2.1629,2.1415,1.6615,1.1206,0.45784,-0.17802,-0.22525,0.032509,-0.11687,-0.41491,-0.35639,-0.25099,-0.36716,-0.33878,-0.081856,-0.12103,-0.58706,-0.88692,-0.7732,-0.70317,-0.87018,-0.98922,-1.0316,-1.1907,-1.3505,-1.3153,-1.2074,-1.1992,-1.2519,-1.3806,-1.677,-1.9132,-1.8041,-1.6386,-1.8026,-1.9968,-1.8168,-1.5128,-1.4639,-1.5594,-1.5239,-1.337,-1.1101,-0.89924,-0.7353,-0.62116,-0.45902,-0.19246,0.054818,0.20428,0.32399,0.41063,0.45175,0.5541,0.71179,0.77913,0.76386,0.77773,0.81778,0.85281,0.86878,0.82122,0.77448,0.81833,0.83964,0.7881,0.82926,0.90611,0.78986,0.59219,0.51037,0.48805,0.5552,0.76294,0.90935,0.96188,1.033,0.89524,0.54304,0.48404,0.67663,0.59492,0.45401,0.72175,0.98346,0.75151,0.49768,0.71988,0.91142,0.49387
1,0.64276,1.9652,2.9048,2.3393,0.79156,0.15918,0.92528,1.2315,1.1813,1.3699,0.87052,-0.17246,-0.71375,-0.66788,-0.88154,-0.88056,-0.93677,-1.0416,-1.1712,-1.0859,-1.1249,-1.3186,-1.4501,-1.4574,-1.4786,-1.6754,-1.729,-2.002,-2.0564,-2.0999,-2.1469,-2.0228,-2.0072,-2.0074,-1.5997,-1.2477,-1.0343,-0.58501,-0.238,0.048785,0.27358,0.41883,0.64275,0.684,0.7032,0.78273,0.75176,0.6388,0.58432,0.66918,0.63541,0.59267,0.62952,0.63589,0.59991,0.51704,0.62039,0.54817,0.5909,0.4871,0.51183,0.51281,0.41524,0.38768,0.32056,0.44473,0.34956,0.35382,0.46868,0.3302,0.40549,0.42792,0.4108,0.58943,0.76785,0.86362,0.62073,0.5261,0.43977,0.13778,0.1135,0.10894,0.13049,0.061248,0.078585,0.077829,0.079985,-0.10907,0.065846,0.10819,-0.04737,-0.098171,-0.021279,0.09269,0.12069,0.34983
1,0.50691,1.637,3.1548,1.7403,1.8124,0.61719,-1.3849,-0.25467,0.50182,0.15306,-0.075267,0.10884,-0.20001,-0.71552,-0.94438,-0.79628,-0.97295,-1.1059,-1.1304,-1.3638,-1.1811,-1.3503,-1.6052,-1.4907,-1.6388,-1.7028,-1.9761,-1.9501,-1.8605,-2.3428,-1.9824,-1.5832,-1.8471,-1.682,-1.4608,-1.2977,-0.55793,-0.38097,-0.3114,0.35316,0.31505,0.62622,1.0198,0.81319,1.0338,1.0255,1.0324,1.1788,0.74439,0.81744,0.88088,0.57846,0.78843,0.63661,0.4124,0.61824,0.6419,0.64007,0.48912,0.41201,0.67668,0.52389,0.49947,0.34045,0.36467,0.54218,0.37836,0.4603,0.2301,0.49427,0.3348,0.15981,0.67294,0.77502,0.97858,0.82089,0.55729,0.69978,0.50513,0.30668,0.17112,0.11585,0.13145,0.16103,0.0099787,0.10866,0.04893,-0.014351,0.031856,0.13921,0.17827,-0.10442,0.10132,0.21106,0.041466,0.20303
1,0.59592,1.3137,2.7465,4.1991,2.7199,1.7152,0.1593,-0.56275,0.93842,1.0181,0.69694,0.75986,0.74706,0.025409,-0.39748,-0.6926,-0.67264,-0.70593,-0.83698,-0.8541,-1.0416,-0.97179,-1.1959,-1.4385,-1.2723,-1.4633,-1.5424,-1.5671,-1.7617,-1.8428,-1.6367,-1.792,-1.8138,-1.5141,-1.4983,-1.2834,-1.0093,-0.63408,-0.21876,-0.063673,0.18071,0.40228,0.68323,0.59287,0.94003,0.98085,0.77389,0.87522,0.77837,0.79599,0.68324,0.54214,0.64059,0.50923,0.49929,0.55353,0.47594,0.60663,0.54056,0.52309,0.34663,0.42163,0.39822,0.26746,0.36036,0.29793,0.21546,0.11282,0.23442,0.064902,0.086005,0.11529,0.40376,0.64651,0.53431,0.57351,0.35303,0.26354,0.092058,-0.17175,-0.1607,-0.24941,-0.1236,-0.41908,-0.32022,-0.22564,-0.41718,-0.29645,-0.42934,-0.37286,-0.38689,-0.53092,-0.38205,-0.45982,-0.47662,-0.29427
-1,1.2215,3.5216,3.6276,3.077,2.0357,-0.13593,1.2264,0.74405,0.20938,0.65521,-0.21037,-0.82743,-1.0251,-1.1013,-1.023,-1.4627,-1.4367,-1.4114,-1.6731,-1.8699,-1.9964,-2.1151,-2.198,-2.053,-2.0658,-1.7572,-1.6556,-0.87854,-0.75573,-0.51665,0.099858,0.07772,0.41593,0.4242,0.69322,0.67814,0.47881,0.62166,0.58121,0.24988,0.41374,0.34924,0.34486,0.29218,0.41369,0.091295,0.4813,0.19184,0.32477,-0.054056,0.26275,0.12352,0.029316,0.040024,0.15409,0.14086,-0.12625,0.0062633,0.10966,0.031423,-0.032845,-0.0056071,-0.044973,0.033774,-0.030622,-0.0059869,-0.035923,0.023525,0.010006,0.010864,0.050329,0.046131,0.06747,0.0078069,0.10937,0.053045,-0.014841,0.28772,0.66468,0.7154,0.66527,0.79549,0.35689,0.1561,-0.014453,-0.058793,-0.14699,0.092278,0.0028709,-0.21005,-0.0059148,-0.10002,-0.040721,0.089249,0.09983,0.3192
1,0.78098,1.3408,1.9633,3.0925,3.7209,3.0265,1.9805,1.0087,-0.088959,-0.24125,0.38624,0.59234,0.65592,0.80493,0.55721,0.30264,0.43666,0.36623,-0.052912,-0.27489,-0.38188,-0.53945,-0.51951,-0.54375,-0.74428,-0.80257,-0.71353,-0.72707,-0.89103,-0.88052,-0.75277,-0.99466,-1.1371,-1.015,-1.3691,-1.4848,-1.0222,-1.2475,-1.7115,-1.5263,-1.4788,-1.6883,-1.586,-1.3636,-1.3903,-1.5853,-1.5155,-1.1572,-1.0263,-1.1042,-0.82271,-0.3666,-0.31252,-0.21262,0.2038,0.28948,0.21227,0.39288,0.50741,0.59223,0.76172,0.74415,0.65503,0.71342,0.80247,0.74421,0.56416,0.51219,0.55213,0.49949,0.4982,0.48084,0.32557,0.32538,0.44401,0.42942,0.37473,0.28648,0.21086,0.3007,0.36982,0.28008,0.19298,0.20796,0.24699,0.20076,0.14464,0.18789,0.15192,-0.076789,-0.096129,0.20185,0.21727,-0.17632,-0.23526,0.015158
1,0.28914,0.43851,1.8579,3.179,1.9177,0.48448,-0.69042,-0.97612,0.3006,0.68457,-0.052811,0.035297,0.30537,-0.79471,-1.2263,-1.0703,-1.1958,-1.2413,-1.0606,-1.2571,-1.3205,-1.2959,-1.4024,-1.5844,-1.6821,-1.6731,-1.9534,-1.9779,-1.9078,-1.6603,-1.967,-1.9353,-1.6468,-1.7517,-1.4279,-0.93966,-0.77476,-0.40596,-0.021662,0.30653,0.56241,0.60511,0.92062,0.9137,1.1958,1.0438,1.0235,1.1545,0.89139,1.0221,0.84417,0.75219,0.77935,0.68221,0.80309,0.49716,0.62816,0.66952,0.71511,0.66328,0.35205,0.45899,0.70632,0.60335,0.35211,0.23022,0.38732,0.27627,0.41591,0.61819,-0.063744,0.84627,0.89761,0.79958,0.89145,0.72313,1.0287,0.42059,0.30022,0.28448,-0.055719,0.17363,-0.078737,-0.0065968,0.017777,-0.074981,0.061269,-0.09679,0.037139,-0.1307,-0.078758,0.21742,-0.06345,-0.053827,0.12425,0.20686
1,-0.022584,0.20521,1.7449,2.3217,1.2524,0.45186,-0.59502,-0.1086,0.53918,0.23146,0.25229,-0.09344,-0.29337,-0.95179,-1.0924,-1.1794,-1.2756,-1.3215,-1.4629,-1.2618,-1.3052,-1.6135,-1.6115,-1.5663,-1.4517,-1.7714,-2.0377,-1.7587,-1.8883,-1.7658,-1.9705,-2.0275,-1.8254,-1.7609,-1.5131,-1.4169,-1.3203,-0.93721,-0.60076,-0.20675,0.0089492,0.12271,0.64379,0.57089,0.63746,0.7498,0.81657,0.6982,0.64807,0.76962,0.7685,0.84822,0.63314,0.65398,0.85395,0.76331,0.74112,0.7974,0.84658,0.82338,0.68,0.79463,0.83236,0.76411,0.66607,0.72269,0.78358,0.51355,0.62307,0.61176,0.58928,0.68037,0.60238,0.76898,0.98698,1.0081,1.0315,0.84182,0.69312,0.68368,0.56372,0.43864,0.39072,0.41663,0.24159,0.27062,0.33426,0.24865,0.39522,0.32683,0.085146,0.15682,0.26549,0.15787,0.18967,0.25331
-1,0.18753,-0.27664,-0.3088,-0.27084,-0.73065,-0.1787,-0.40416,-1.3154,-1.0493,-1.1725,-1.2253,-1.2664,-1.578,-1.5187,-1.6224,-1.7891,-1.6733,-1.9586,-2.1708,-1.8938,-2.1185,-2.1489,-2.0921,-1.9172,-1.3794,-1.3948,-1.2245,-0.70368,-0.51579,-0.37019,-0.0079399,-0.060596,0.049118,0.24306,0.17959,0.37773,0.13241,0.12278,0.58686,0.4348,0.27736,0.39086,0.42753,0.5413,0.56744,0.63404,0.61025,0.60249,0.50073,0.60956,0.71632,0.66526,0.70037,0.34768,0.45851,0.73904,0.52362,0.51508,0.41769,0.302,0.45725,0.28859,0.15256,0.16566,0.22199,0.35536,0.35026,0.23771,0.29323,0.52299,0.62181,0.5848,0.65454,0.79431,0.84635,0.51371,0.26587,0.38071,0.31813,0.35077,0.4435,0.38845,0.51553,0.17508,0.087393,0.41601,0.32666,0.40173,0.69112,1.4805,2.2213,2.623,2.5892,1.9354,0.83475,-0.030336
1,0.16456,1.1073,2.147,1.8764,1.6426,0.42171,-1.3479,-0.57437,0.38085,-0.14113,-0.086251,0.2246,-0.2278,-0.81511,-1.0199,-1.1106,-1.1852,-1.3336,-1.1761,-1.2988,-1.5781,-1.5406,-1.6413,-1.5596,-1.6322,-1.8854,-1.8133,-1.8846,-1.9639,-2.0534,-2.0121,-1.9517,-1.9096,-1.7048,-1.3394,-1.2274,-0.93415,-0.44912,-0.25494,-0.12826,0.17804,0.51285,0.42906,0.78312,0.66074,0.77236,0.94044,0.73659,0.72598,0.67049,0.79568,0.61387,0.54969,0.75668,0.51066,0.53629,0.50367,0.68027,0.87944,0.49186,0.50645,0.7127,0.60108,0.71052,0.67532,0.54588,0.6565,0.56397,0.51107,0.59602,0.46392,0.52364,0.78816,1.1295,1.1495,0.98226,0.89402,0.76415,0.68591,0.41375,0.38835,0.63458,0.31397,0.22409,0.47256,0.18464,0.35553,0.25334,0.11911,0.29623,0.32212,0.2635,0.2045,0.21071,0.3972,0.57305
1,0.41602,1.114,2.1378,1.9797,0.65162,-0.43882,0.39647,0.95909,0.87091,1.2258,0.39358,-0.42623,-0.66876,-0.87513,-0.91727,-0.92671,-1.0474,-1.0875,-1.1044,-1.4031,-1.4855,-1.5943,-1.8601,-2.0468,-2.1797,-2.3355,-2.5923,-2.52,-2.5636,-2.4377,-2.1831,-1.722,-1.1827,-0.85193,-0.29881,0.19869,0.34851,0.58371,0.73279,0.76717,0.78734,0.69327,0.71144,0.58582,0.55144,0.62029,0.54671,0.59147,0.73227,0.63572,0.61229,0.73886,0.6506,0.60938,0.66133,0.65502,0.59753,0.51081,0.5459,0.46809,0.39408,0.52064,0.38481,0.38327,0.42956,0.38067,0.35429,0.25855,0.43332,0.26673,0.2765,0.42485,0.26645,0.22432,0.33174,0.36997,0.56189,0.82878,0.78523,0.50168,0.35057,0.3598,0.23484,0.11808,0.18145,0.10988,0.055478,0.20031,0.15216,0.1497,0.18564,0.21463,0.14912,0.15756,0.35171,0.11957
1,1.1594,2.5344,2.9723,2.0894,0.41626,-0.017382,1.2205,1.2212,1.066,1.3502,0.68139,0.035639,-0.36204,-0.44151,-0.85315,-0.79641,-0.74199,-0.95344,-1.0306,-0.98844,-1.1126,-1.2711,-1.2987,-1.3884,-1.5145,-1.6666,-1.784,-1.8865,-2.0475,-2.1838,-2.1545,-2.1857,-2.0937,-1.9739,-1.6681,-1.1974,-0.98879,-0.63067,-0.11765,0.14002,0.34386,0.57523,0.6877,0.74875,0.69004,0.75387,0.77483,0.66529,0.6254,0.64566,0.61851,0.60604,0.63943,0.64645,0.64086,0.55341,0.58248,0.5894,0.61619,0.49229,0.48719,0.48858,0.39059,0.42834,0.4237,0.27419,0.25956,0.3731,0.26054,0.27551,0.30727,0.28528,0.23012,0.18065,0.47672,0.652,0.60353,0.58549,0.61454,0.44067,0.20045,0.16805,-0.016371,0.013379,-0.073255,0.0027094,0.047906,-0.089623,-0.068106,-0.012348,-0.011727,-0.079906,-0.051752,-0.054229,-0.081739,0.035595
1,0.95489,2.1905,3.4384,3.3064,2.752,0.94861,0.10024,1.0081,0.79991,0.66919,0.75164,0.33962,-0.10044,-0.37277,-0.40367,-0.6125,-0.77438,-0.62467,-0.87058,-0.96719,-0.97904,-1.1457,-1.0789,-1.302,-1.4584,-1.431,-1.6022,-1.6908,-1.7543,-1.7397,-1.9577,-1.9801,-1.8879,-1.8733,-1.6836,-1.439,-1.1539,-0.66454,-0.39579,-0.17948,0.37501,0.4911,0.55338,0.77381,0.78655,0.76038,0.77982,0.67836,0.64907,0.62813,0.50539,0.51614,0.50938,0.44309,0.43775,0.50859,0.55839,0.41194,0.50587,0.4197,0.39749,0.4281,0.33317,0.35166,0.24183,0.25573,0.21702,0.080437,0.13614,0.14118,0.16918,0.11719,0.20545,0.5016,0.5749,0.56978,0.45649,0.29058,0.17775,-0.035325,-0.10457,0.063707,-0.0064037,-0.29534,-0.10858,-0.097027,-0.17846,-0.20516,-0.12417,-0.11821,-0.2897,-0.21914,-0.19022,-0.32018,-0.064398,0.2196
1,0.26158,0.57982,1.0495,1.9877,2.3516,1.5728,0.94027,0.32373,-0.34594,-0.44661,-0.41008,-0.27481,-0.27101,-0.40467,-0.43797,-0.69019,-0.86852,-0.97684,-1.0214,-0.91656,-1.0852,-1.0981,-0.98283,-1.0841,-0.99017,-1.0746,-1.303,-1.1845,-1.2653,-1.5935,-1.588,-1.5622,-1.7961,-1.7979,-1.616,-1.7218,-1.8776,-1.7416,-1.4715,-1.3424,-1.4279,-1.3992,-1.123,-0.88908,-0.58593,-0.30253,-0.37771,-0.3297,0.11435,0.27374,0.1751,0.3206,0.47897,0.4773,0.3347,0.25808,0.41822,0.4557,0.56326,0.64229,0.48337,0.59779,0.61607,0.4938,0.54941,0.60734,0.79892,0.69315,0.59397,1.0173,1.0964,1.0067,1.1743,1.2659,1.3795,1.3663,1.1348,1.2972,1.384,0.99097,1.0084,0.96773,0.54369,0.55492,0.59882,0.63389,0.61613,0.42186,0.60035,0.63078,0.38843,0.46511,0.54775,0.43416,0.5876,0.54979
1,0.5431,1.2273,2.6795,2.8579,1.7048,-0.020583,-0.68932,0.94154,1.1064,1.0761,1.7448,0.77983,-0.21725,-0.93104,-0.69332,-0.68116,-1.0851,-1.2432,-0.9582,-1.2711,-1.3249,-1.3877,-1.3869,-1.5891,-1.6979,-1.2655,-2.0391,-1.8232,-1.743,-2.142,-1.6471,-2.0624,-2.0292,-1.2299,-1.3726,-1.0862,-0.68923,-0.37195,0.049285,0.29082,0.6988,0.76111,0.95659,0.88487,1.3255,1.1217,0.85714,0.82838,0.77034,1.0531,0.66661,0.33453,0.57658,0.72305,0.48691,0.43315,0.73477,0.47377,0.56453,0.29504,0.57951,0.50027,0.20683,0.71297,0.33679,0.1508,0.38031,0.18679,-0.0094598,0.16114,0.29587,0.0076856,0.17711,0.41285,0.26696,0.95373,0.81309,0.25147,0.47592,0.34865,0.21628,-0.16607,-0.17753,0.071613,-0.20268,-0.25025,0.082941,-0.23945,-0.37375,-0.095986,-0.17754,-0.043047,-0.15926,-0.23935,-0.060706,-0.26419
-1,0.50872,0.80969,1.5528,1.9817,1.6243,1.3628,1.4121,0.97378,0.19369,-0.26377,-0.33644,-0.18885,-0.13284,-0.33662,-0.42502,-0.28996,-0.29898,-0.46745,-0.578,-0.69952,-0.86183,-0.86605,-0.77511,-0.83779,-0.89224,-0.82737,-0.93749,-1.0886,-0.99066,-0.96244,-1.1148,-1.1861,-1.2781,-1.3767,-1.3227,-1.3949,-1.6385,-1.6768,-1.5464,-1.4945,-1.4416,-1.3426,-1.3243,-1.298,-1.1485,-1.0494,-0.98199,-0.69182,-0.43398,-0.57438,-0.63901,-0.11975,0.35124,0.18563,0.10283,0.486,0.57407,0.40397,0.53454,0.58675,0.52181,0.72176,0.68486,0.3516,0.43725,0.71485,0.69202,0.60708,0.60401,0.65274,0.72515,0.6873,0.71821,0.8755,0.84447,0.84914,1.1552,1.2696,1.0979,1.1795,1.3981,1.3729,1.4783,1.7967,1.4383,0.69252,0.93092,1.4972,1.1967,0.8571,0.70511,0.13772,-0.33259,-0.9708,-1.8623,-1.2386
1,-0.17434,1.3529,2.6916,1.6637,1.6834,0.53117,-1.3537,-0.18407,0.45317,-0.1976,0.09404,0.4459,-0.31479,-1.1647,-0.99763,-1.1755,-1.1556,-1.2357,-1.4046,-1.3852,-1.4048,-1.3337,-1.4275,-1.6476,-1.7994,-1.8411,-1.8255,-1.7911,-1.8242,-2.0028,-2.0098,-1.7301,-1.7376,-1.664,-1.4605,-1.1407,-0.98503,-0.61659,-0.11335,-0.11709,0.23537,0.42662,0.48868,0.65638,1.0051,0.91309,0.77286,0.9666,0.87115,0.75099,0.69888,0.64589,0.65246,0.6412,0.67783,0.62034,0.68975,0.67415,0.65612,0.68502,0.73064,0.66934,0.66356,0.67115,0.63668,0.7106,0.68416,0.54002,0.45112,0.58766,0.5055,0.4531,0.77292,0.89361,0.9026,0.97001,0.95259,0.60384,0.59555,0.61378,0.239,0.30505,0.2793,0.22292,0.014129,0.29555,0.33274,0.015243,0.31151,0.18322,0.098611,0.13709,0.13226,0.25321,0.019005,0.12422
1,0.54279,2.064,2.806,1.5595,0.15867,-0.70491,-0.023513,0.5781,0.41834,0.53747,0.11032,-0.18762,-0.46297,-0.67849,-0.6666,-0.72721,-0.7721,-0.88131,-0.84969,-1.2678,-1.2195,-1.1338,-1.4279,-1.5643,-1.8216,-1.7485,-1.929,-2.1355,-2.2464,-2.2156,-2.1511,-2.3312,-1.9414,-1.5425,-1.3926,-0.94052,-0.62263,-0.14432,0.32856,0.56987,0.99914,0.96786,0.83334,1.2204,1.0759,0.9554,1.0877,0.86272,0.73645,0.85794,0.78105,0.84238,0.81269,0.65458,1.0122,0.85269,0.61353,0.83037,0.74648,0.55807,0.73411,0.71617,0.65707,0.58363,0.63083,0.59398,0.41479,0.61574,0.48515,0.43625,0.44166,0.35273,0.40226,0.32068,0.70178,0.59395,0.70273,0.65788,0.02778,0.20897,0.068265,-0.11799,-0.10502,-0.090652,-0.18748,-0.13078,-0.12056,-0.09031,-0.12118,-0.24796,-0.014805,-0.031834,-0.16429,-0.063093,-0.10603,0.0018427
1,0.56688,0.59277,2.1506,3.302,1.7582,-0.10959,-1.3995,-0.59941,0.23626,0.183,-0.10914,-0.37202,0.10176,-0.91048,-1.0245,-1.0119,-1.1544,-1.2902,-1.2731,-1.1593,-1.2999,-1.5996,-1.4792,-1.4047,-1.6715,-1.6118,-1.9007,-2.0397,-1.8474,-2.0188,-2.0559,-1.5812,-1.7308,-1.6192,-1.7978,-0.5725,-0.36224,-0.43258,0.27759,-0.17473,1.0226,0.62305,1.0622,1.1361,0.91592,0.95372,0.78111,0.95437,0.49888,0.82315,0.76074,0.50969,0.69828,0.19079,0.73331,0.3012,0.38008,0.85431,0.46171,0.22523,0.39193,0.53772,0.46555,0.33461,0.31563,0.33141,0.25276,0.42247,0.33734,0.023033,0.48181,0.07166,0.38076,0.91484,0.65785,0.89768,0.96119,0.75031,0.44027,0.39289,0.42709,0.15916,0.28952,0.1222,0.15607,0.43354,0.48783,0.19882,0.058044,0.42292,0.44392,0.22726,0.51163,0.35541,0.30972,0.59314
1,0.78923,2.0528,3.6115,3.8177,2.4658,0.69778,-0.76628,0.37967,0.76404,0.25773,0.53011,0.19902,0.35028,-0.31242,-0.32042,-0.46188,-0.55545,-0.66719,-0.74946,-0.88505,-0.98085,-1.0631,-1.0495,-1.1251,-1.518,-1.4809,-1.5101,-1.6478,-1.7578,-1.8027,-1.7923,-1.8688,-1.7035,-1.5779,-1.3327,-1.1428,-0.98107,-0.24034,-0.14657,0.034652,0.60722,0.48034,0.88052,0.83146,0.88195,1.0551,1.0052,0.92835,0.8221,0.83763,0.79331,0.64607,0.58252,0.65238,0.52281,0.47384,0.56196,0.58332,0.52856,0.40636,0.49939,0.41738,0.42487,0.36774,0.33871,0.31959,0.04983,0.36299,0.30738,0.0036183,0.033593,-0.00022252,0.15017,0.38759,0.34819,0.44369,0.46841,0.43036,0.14604,-0.14166,-0.08811,-0.23576,-0.37701,-0.52754,-0.27322,-0.31914,-0.48796,-0.42076,-0.39689,-0.44396,-0.47242,-0.37749,-0.34507,-0.34179,-0.44912,-0.39279
1,0.068847,0.80885,2.608,3.6403,2.0933,0.42604,-0.95675,-0.4517,0.29688,0.43301,0.35309,-0.33604,0.1474,-0.67366,-0.91682,-0.90128,-0.9931,-0.93581,-1.2372,-1.1273,-1.2827,-1.5474,-1.4292,-1.4337,-1.454,-1.829,-1.9819,-1.8779,-2.0599,-1.9538,-1.8248,-1.9793,-1.2837,-1.4264,-1.4781,-0.78745,-0.60358,-0.24979,-0.022741,0.39848,0.67979,0.73842,1.078,0.96627,0.99012,1.1602,1.0158,0.94281,0.8637,0.75727,0.57539,0.66074,0.88336,0.57994,0.54937,0.75627,0.52776,0.50517,0.62776,0.64242,0.6113,0.51007,0.44492,0.56772,0.41105,0.35671,0.48313,0.37172,0.4062,0.16769,0.32064,0.36711,0.44763,0.84198,0.89723,0.64747,0.47429,0.33651,0.2815,0.1232,-0.057564,0.010401,-0.017934,-0.17629,-0.23377,0.29683,-0.10895,-0.16938,-0.055744,-0.10517,0.018623,-0.16231,-0.089595,-0.071969,0.03869,0.076533
1,0.92757,1.2653,2.6947,3.9203,2.6225,1.5789,0.32294,0.033836,1.3215,1.4229,1.0231,1.1997,1.1088,0.027013,-0.44295,-0.51069,-0.56288,-0.70542,-0.75028,-0.89063,-0.84207,-0.83652,-1.1819,-1.1828,-1.1317,-1.284,-1.5165,-1.6958,-1.6966,-1.7925,-1.8976,-1.8772,-1.7712,-1.663,-1.5372,-1.291,-1.0182,-0.70705,-0.55455,-0.21021,0.23041,0.20546,0.44585,0.6062,0.74693,0.72645,0.82564,0.9893,0.79615,0.63809,0.60042,0.75238,0.71156,0.46214,0.48055,0.60995,0.71069,0.41262,0.45536,0.58211,0.44616,0.4249,0.385,0.37826,0.36084,0.37323,0.20037,0.077667,0.22277,0.068981,0.06495,-0.065662,0.17738,0.4022,0.36716,0.54229,0.38647,0.24675,0.067658,-0.16459,-0.14153,-0.40596,-0.39321,-0.33064,-0.5765,-0.40721,-0.35437,-0.58097,-0.39975,-0.48713,-0.54088,-0.40869,-0.5679,-0.47169,-0.44379,-0.35955
1,0.34264,0.88226,1.6426,1.9629,1.7741,1.6433,1.2459,0.56181,-0.032995,-0.34645,-0.11861,-0.05268,-0.40854,-0.2667,-0.068462,-0.29902,-0.43211,-0.64049,-0.92019,-0.95061,-0.97578,-1.0752,-1.1348,-1.168,-1.1909,-1.2593,-1.3657,-1.4339,-1.5118,-1.6392,-1.6745,-1.6929,-1.8214,-1.8416,-1.7906,-1.8775,-1.899,-1.779,-1.7076,-1.5758,-1.3088,-1.1429,-1.0267,-0.74848,-0.45906,-0.28541,-0.16208,-0.15107,-0.13861,0.11034,0.26846,0.19691,0.34159,0.47336,0.37149,0.46578,0.54089,0.36441,0.26528,0.33029,0.43268,0.28758,0.10056,0.30307,0.39592,0.27463,0.3942,0.42914,0.33963,0.54674,0.82203,0.89685,0.95537,1.0647,1.1424,1.2079,1.2097,1.1701,1.1039,0.89564,0.80437,0.87587,0.80604,0.83205,0.94485,0.8475,0.80587,0.84187,0.75078,0.7757,0.89392,0.73848,0.55958,0.74929,0.90113,0.49019
1,1.2106,2.0033,1.7456,1.4758,0.19887,0.10653,1.0173,0.81743,0.99833,0.82159,-0.299,-0.67685,-0.68235,-0.96281,-0.97213,-1.0023,-1.0993,-1.0527,-1.2604,-1.3282,-1.3952,-1.548,-1.7076,-1.9473,-2.0773,-2.2287,-2.3157,-2.4765,-2.55,-2.3833,-2.1908,-2.0227,-1.5502,-1.1347,-0.71965,-0.22868,0.10805,0.32213,0.49458,0.6665,0.66158,0.63379,0.55831,0.53485,0.48214,0.3886,0.39941,0.39394,0.39691,0.42166,0.38075,0.46693,0.48419,0.46931,0.5586,0.45823,0.4783,0.47697,0.49255,0.42788,0.49165,0.41994,0.38064,0.44768,0.36613,0.32853,0.31534,0.44444,0.38678,0.35675,0.44368,0.42994,0.474,0.6372,0.78669,1.0491,0.87613,0.63469,0.64561,0.46473,0.46334,0.42437,0.26218,0.22535,0.34205,0.36437,0.25836,0.21793,0.2691,0.33819,0.29435,0.22705,0.40832,0.35726,0.6172,0.81171
1,0.59314,0.80251,0.067022,0.052161,-0.12168,-0.26202,-0.33994,-1.0062,-0.59899,-0.5297,-1.1856,-1.0053,-0.89877,-1.0918,-1.4072,-1.4293,-1.625,-1.5733,-1.9192,-1.7484,-1.8058,-1.8972,-1.7293,-2.2692,-1.7849,-1.746,-1.7475,-0.72999,-0.84418,-0.42672,-0.26634,-0.079507,1.1773,0.73348,0.65013,1.1788,1.079,0.94115,1.0896,1.1171,0.8148,1.3428,0.60502,0.87274,0.51232,0.7249,1.0885,0.77411,0.70871,0.79153,0.70991,0.48997,0.78994,0.50127,0.64552,0.7664,0.15491,0.41565,0.31424,0.42052,0.32342,0.27822,-0.090264,0.08286,0.53526,0.24758,0.5614,0.30953,0.27272,0.21811,0.27393,-0.017905,-0.13892,-0.21014,-0.11375,0.093109,-0.42413,-0.18866,0.048308,-0.66521,-0.30484,0.004876,-0.41412,-0.19677,-0.17918,-0.51376,-0.41398,0.10872,-0.023326,1.2234,3.0473,2.4026,2.4358,1.2767,-0.79784,0.093127
1,0.70371,2.133,3.5596,3.3634,2.6401,1.2605,-0.49061,-0.090413,0.53945,0.25432,0.34156,0.34724,0.28074,-0.058395,-0.69287,-0.89371,-0.50979,-0.85662,-0.88452,-0.93822,-1.2569,-1.0658,-1.2761,-1.2851,-1.4805,-1.6129,-1.4955,-2.0529,-1.6417,-1.7385,-1.8949,-1.7296,-2.1027,-1.3989,-1.1161,-1.3826,-1.0009,-0.45116,-0.11216,-0.12544,0.38431,0.52268,0.64023,0.8368,0.91335,0.97374,0.85506,0.91683,0.78954,0.816,0.76457,0.49983,0.65677,0.57289,0.61484,0.5409,0.39078,0.47798,0.37672,0.56613,0.32403,0.24478,0.4397,0.23777,0.25566,0.28476,0.3454,0.1538,-0.07881,0.22459,0.29375,-0.082837,0.059071,0.37342,0.76557,0.427,0.52757,0.50578,0.13154,0.12951,-0.151,0.12673,-0.23428,-0.29218,-0.26471,-0.096006,-0.18423,-0.1909,-0.14322,-0.24368,-0.045045,-0.20657,-0.21479,-0.20444,-0.25947,0.14367
-1,2.1667,2.2842,1.7855,1.9232,2.2244,1.6907,0.5928,-0.19814,-0.43427,-0.45958,-0.56503,-0.71309,-0.75961,-0.79938,-0.95621,-1.0616,-1.0103,-0.96559,-1.0139,-1.1066,-1.2218,-1.307,-1.2826,-1.2499,-1.3272,-1.4259,-1.4768,-1.5197,-1.545,-1.5457,-1.5299,-1.5441,-1.6328,-1.6235,-1.4694,-1.4156,-1.422,-1.3089,-1.1464,-0.93082,-0.67493,-0.51149,-0.33628,-0.066463,0.13639,0.26326,0.43955,0.62767,0.74826,0.8321,0.89969,0.96996,1.0677,1.0498,0.93097,0.99617,1.1629,1.2175,1.2604,1.2207,1.0665,1.0374,1.0281,0.87634,0.71833,0.56646,0.44232,0.42798,0.40983,0.36089,0.35149,0.32015,0.28117,0.30649,0.30456,0.23258,0.23221,0.27865,0.22146,0.19772,0.30678,0.34048,0.25722,0.15949,0.082377,0.13272,0.25138,0.24409,0.15267,0.081487,0.10039,0.22872,0.2539,0.13794,0.19931,0.47756
-1,0.919,1.0688,0.98272,1.5202,2.3104,2.308,1.7544,1.5136,1.3181,0.67161,0.062202,-0.055991,0.058748,0.030199,-0.20714,-0.31797,-0.18678,-0.22071,-0.3059,-0.11304,-0.21837,-0.74126,-0.81073,-0.5687,-0.76214,-1.0348,-0.99951,-0.9867,-1.0671,-1.1347,-1.2243,-1.2683,-1.3359,-1.4715,-1.4949,-1.5714,-1.8627,-1.9504,-1.7486,-1.7054,-1.8034,-1.7724,-1.6901,-1.6295,-1.5752,-1.5344,-1.386,-1.1422,-0.93928,-0.67225,-0.36513,-0.26431,-0.24073,-0.05092,0.17104,0.32676,0.50362,0.61688,0.58608,0.58392,0.66562,0.6415,0.57376,0.68558,0.78233,0.66129,0.60656,0.70974,0.73993,0.75959,0.8107,0.72006,0.59838,0.61023,0.65995,0.66578,0.53887,0.30914,0.34512,0.71144,0.94078,0.87844,0.81039,0.81205,0.74804,0.60765,0.50924,0.53016,0.55421,0.49521,0.51779,0.62778,0.63406,0.63413,0.64785,0.38106
-1,1.3971,2.2886,2.434,2.3546,2.3226,1.9834,1.3103,0.64808,-0.017223,-0.51081,-0.36041,-0.094297,-0.42289,-0.59954,-0.15653,-0.01468,-0.31325,-0.43695,-0.65325,-0.96136,-0.79908,-0.63679,-0.95354,-1.1025,-1.004,-1.174,-1.237,-0.94879,-0.92823,-1.2256,-1.3604,-1.3778,-1.4316,-1.4836,-1.6024,-1.662,-1.5269,-1.5467,-1.8137,-1.8438,-1.6125,-1.5421,-1.5475,-1.3193,-0.98674,-0.77436,-0.64322,-0.51983,-0.41192,-0.27227,-0.056058,0.13797,0.23101,0.31626,0.41062,0.43364,0.49259,0.59999,0.55346,0.5188,0.68589,0.67408,0.4488,0.51003,0.65705,0.45501,0.31711,0.46951,0.45565,0.312,0.39555,0.50723,0.4597,0.46915,0.55116,0.51315,0.41826,0.41703,0.46711,0.55602,0.78862,1.0157,0.92312,0.69249,0.72154,0.82764,0.72857,0.63287,0.6735,0.75655,0.85334,0.75986,0.49323,0.5817,0.83667,0.42749
-1,0.99293,2.3228,2.3506,2.5804,2.635,1.4674,-0.12895,-0.90739,-1.0144,-1.3188,-1.3309,-1.2729,-1.3168,-1.5566,-1.3385,-1.5092,-1.5848,-1.6531,-1.9489,-1.8484,-1.8435,-1.8497,-1.7824,-1.6661,-1.542,-1.2042,-0.93148,-0.59165,-0.29757,-0.15772,0.56933,0.24729,0.93646,0.5076,1.1304,0.63645,0.74346,0.65923,0.59201,0.46853,0.29239,0.63852,0.35735,0.37739,0.3662,0.32036,0.35764,0.3248,0.13541,0.24939,0.25878,0.11293,0.17072,0.11,0.049029,0.089261,0.12839,0.1296,0.0025815,0.09325,0.13313,-0.10652,0.0080989,0.038201,-0.11082,-0.12042,-0.11178,0.049726,0.088461,0.26364,0.53091,0.16304,0.27438,0.023396,0.10735,-0.1572,-0.10725,0.043185,-0.097838,0.016613,-0.054094,-0.28676,-0.10817,-0.089246,-0.20701,-0.012786,-0.18408,-0.29055,-0.1039,0.038109,0.39968,2.0067,2.2594,2.0787,0.98134,-0.16344
1,0.59783,1.2574,2.7585,4.087,2.4522,0.81664,-0.77634,-0.50396,0.58736,0.18173,0.11381,-0.019753,0.30257,-0.35719,-0.72213,-0.7347,-1.0181,-0.68483,-0.92543,-1.1036,-1.2606,-1.0173,-1.1808,-1.726,-1.4324,-1.9683,-1.5941,-1.4786,-2.3515,-1.7502,-1.9623,-1.8715,-1.5807,-1.5556,-1.1898,-1.0205,-0.40817,-0.093372,0.26726,0.45376,0.34083,1.0665,1.0429,0.84211,0.94017,0.98394,0.977,0.81587,0.7779,0.81861,0.4723,0.54607,0.71133,0.34545,0.59042,0.45654,0.37054,0.85179,0.22274,0.39841,0.2846,0.49737,0.7012,0.075299,0.35071,0.25875,0.23056,0.28878,0.077367,0.2369,0.16692,-0.069638,0.33712,0.61541,0.58699,0.71123,0.63712,0.54294,0.34957,0.16303,-0.045173,-0.16641,0.10594,-0.15698,-0.026205,-0.063728,-0.37007,-0.074982,-0.21382,-0.13281,-0.21683,-0.34658,-0.014023,-0.18417,-0.17685,-0.11922
-1,0.98308,0.84107,1.9683,3.0955,2.3677,1.2316,0.095507,0.73456,0.55704,0.14876,-0.046505,-0.25952,0.077755,-0.72106,-0.5613,-0.68556,-0.86307,-0.91633,-1.0583,-1.3246,-1.4844,-1.8039,-1.9637,-2.2299,-2.5317,-2.6027,-2.5317,-2.5672,-2.4962,-2.0702,-1.6974,-1.2891,-0.93408,-0.43704,-0.09976,-0.09976,0.36178,0.52154,0.6458,0.27302,0.50379,0.30852,0.43278,0.36178,0.37953,0.29077,0.53929,0.30852,0.62805,0.5748,0.6103,0.5748,0.25527,0.6103,0.34403,0.5748,0.41503,0.21977,0.27302,0.55704,0.30852,0.25527,0.29077,0.27302,0.50379,0.18426,0.30852,0.23752,0.060004,0.16651,0.20202,-0.064257,0.21977,0.18426,0.20202,0.095507,-0.17077,0.50379,0.18426,0.18426,0.11326,0.32628,0.25527,0.25527,0.53929,0.30852,0.59255,0.5748,0.34403,0.45054,0.39728,0.48604,0.32628,0.29077,0.48604,0.73456
1,1.3085,2.5327,2.5672,1.1317,-0.042169,0.55679,1.1342,0.90655,1.0641,0.48358,-0.3331,-0.30649,-0.64863,-0.79981,-0.81463,-0.88201,-1.0029,-1.2457,-1.2165,-1.2608,-1.6924,-1.6719,-1.898,-2.1699,-2.1852,-2.4829,-2.4298,-2.4755,-2.2563,-1.925,-1.5829,-1.1123,-0.62868,-0.19759,0.074203,0.24454,0.51298,0.70515,0.55388,0.56663,0.76992,0.50184,0.42563,0.6872,0.50332,0.56407,0.60574,0.57315,0.61751,0.58575,0.53047,0.55388,0.69973,0.50942,0.43474,0.5085,0.45175,0.41138,0.32603,0.43877,0.34449,0.22102,0.18236,0.2964,0.19574,0.08223,0.25162,0.061732,0.11609,0.044929,0.22206,0.47939,0.48613,0.536,0.35084,0.26337,0.050237,-0.024589,-0.04024,-0.081722,0.017325,-0.18496,0.020527,-0.041323,0.050318,0.044883,-0.1315,-0.033368,0.097154,0.080609,0.41817,1.4757,2.1755,0.82516,-0.54098,-0.091632
-1,0.55687,0.81828,0.96784,1.3405,1.9317,2.3662,2.3376,1.8998,1.3691,0.8997,0.36114,-0.17698,-0.34963,-0.18013,-0.13735,-0.31381,-0.3952,-0.34466,-0.31355,-0.2789,-0.27884,-0.43379,-0.59497,-0.62118,-0.67939,-0.81702,-0.86014,-0.84316,-0.8956,-0.92122,-0.88929,-0.96483,-1.1142,-1.1621,-1.1577,-1.2233,-1.3407,-1.4863,-1.6275,-1.6469,-1.5592,-1.5407,-1.6108,-1.628,-1.6004,-1.6351,-1.6498,-1.472,-1.1759,-1.005,-0.9703,-0.88095,-0.73202,-0.63995,-0.52509,-0.28097,-0.062384,-0.02195,-0.019032,0.10383,0.2438,0.23787,0.1565,0.19093,0.35307,0.50156,0.54418,0.48843,0.44293,0.54724,0.71846,0.70816,0.57933,0.62876,0.79178,0.76626,0.61006,0.60153,0.75466,0.90416,1.0214,1.108,1.0623,0.89331,0.79985,0.8384,0.81935,0.70345,0.74309,1.0057,1.1647,1.0659,1.047,1.2695,1.2243,0.56942
1,0.73544,1.87,2.2378,1.3957,0.21107,-1.4824,-1.0472,0.15702,-0.22123,0.019547,0.053035,-0.16331,-0.3669,-0.95737,-1.1039,-1.3409,-1.037,-1.2843,-1.3641,-1.2792,-1.4002,-1.408,-1.4693,-1.6919,-1.6782,-1.4673,-1.8245,-1.9068,-1.9299,-1.7127,-1.8947,-1.9376,-1.638,-1.7445,-1.433,-1.2872,-1.2158,-0.68493,-0.37072,-0.23453,-0.086409,0.27394,0.38104,0.65395,0.51986,0.67703,0.89187,0.76913,0.69866,0.77491,0.84246,0.70445,0.72742,0.59632,0.64563,0.86459,0.66525,0.62394,0.47121,0.82291,0.87045,0.5284,0.70167,0.7608,0.66405,0.65785,0.65826,0.75223,0.67946,0.49665,0.70567,0.49551,0.88177,0.95525,1.1016,1.2254,0.85129,1.0112,0.66294,0.54521,0.77143,0.37383,0.3646,0.37565,0.40421,0.45485,0.24159,0.3437,0.33325,0.34026,0.45008,0.2086,0.29181,0.48405,0.44092,0.2954
1,0.41501,0.67368,1.9191,3.2163,2.8895,2.651,1.216,-0.22194,0.31058,0.41079,-0.041293,-0.22971,0.10139,-0.10165,-0.77507,-0.3689,-0.59624,-0.95912,-0.8567,-0.99242,-1.0889,-1.0417,-1.1048,-1.2596,-1.3323,-1.4336,-1.5878,-1.6363,-1.581,-1.885,-1.8502,-1.5605,-2.1587,-1.895,-1.5887,-1.7735,-1.4501,-1.2622,-0.66521,-0.17823,0.036123,0.41654,0.54832,0.66836,0.77297,0.87176,1.0228,1.0639,0.87278,0.67065,1.0432,0.84761,0.49512,0.76567,0.55919,0.6748,0.59264,0.49202,0.70914,0.62153,0.49031,0.54992,0.65918,0.49548,0.54939,0.40262,0.20818,0.55779,0.26728,0.27608,0.31585,0.10803,0.16247,0.23201,0.61704,0.68555,0.54223,0.59529,0.26795,0.20669,0.027908,-0.17575,0.19438,-0.097093,-0.32245,-0.0021939,0.052543,-0.096648,-0.32224,-0.19479,-0.20157,-0.24678,-0.17662,-0.41987,-0.25288,-0.02753
-1,0.43707,0.18274,-0.38858,-1.0763,-1.2479,-0.73083,-0.17795,-0.11247,-0.23693,-0.10154,0.066372,-0.14924,-0.57392,-0.71201,-0.54023,-0.41591,-0.48968,-0.61413,-0.72557,-0.86629,-0.99517,-1.0197,-0.99517,-1.038,-1.1637,-1.2911,-1.3996,-1.5005,-1.6018,-1.7099,-1.8377,-1.9208,-1.8714,-1.7292,-1.6523,-1.6688,-1.6355,-1.4815,-1.3322,-1.2595,-1.1468,-0.91981,-0.74242,-0.75551,-0.80982,-0.62679,-0.20323,0.18067,0.31912,0.33352,0.43707,0.62131,0.68982,0.62939,0.65612,0.88433,1.1111,1.1367,1.0437,1.0241,1.0437,0.95552,0.79092,0.7511,0.89202,1.0497,1.0605,0.96638,0.90887,0.93144,0.94257,0.88623,0.84147,0.89907,1.01,1.0533,1.01,0.97006,0.99312,1.0461,1.0605,0.98671,0.84147,0.73181,0.75722,0.8541,0.85832,0.76344,0.75722,0.92378,1.0942,1.104,1.0268,1.0053,1.01,0.93739
1,1.2259,1.8509,2.8294,3.2633,2.16,1.3472,0.6058,-0.75582,-0.84215,-0.020085,-0.25751,-0.45801,-0.20191,-0.32052,-0.33016,-0.28678,-0.38413,-0.45739,-0.79393,-0.97711,-0.64542,-0.75733,-1.0511,-0.97099,-1.206,-1.3835,-1.2445,-1.3142,-1.4773,-1.6715,-1.7353,-1.6106,-1.7342,-1.9516,-1.7901,-1.6198,-1.6608,-1.5338,-1.3233,-1.2214,-1.0461,-0.68745,-0.37534,-0.29542,-0.14325,0.12981,0.28452,0.36461,0.40489,0.40548,0.4042,0.35692,0.36217,0.44092,0.37749,0.34422,0.38923,0.18117,0.12141,0.20908,0.073102,0.12792,0.20967,0.10842,0.096872,0.25369,0.62839,0.77861,0.70747,0.7656,0.69542,0.73706,1.0001,1.1125,1.1496,1.2669,1.4226,1.3074,1.0301,0.89761,0.62941,0.46699,0.56097,0.46951,0.43776,0.53859,0.38359,0.19578,0.17058,0.10325,0.13442,0.20906,0.060733,-0.11546,-0.1131,-0.023894
1,0.58128,0.87619,1.0428,1.7961,2.5414,2.2467,1.5004,1.0315,0.38267,-0.19756,-0.16994,0.011444,-0.014047,-0.076611,-0.060981,0.09162,0.22472,-0.013561,-0.47678,-0.65885,-0.67497,-0.8329,-0.85054,-0.73708,-0.80864,-0.87082,-0.89387,-1.0536,-1.1645,-1.1869,-1.1716,-1.1303,-1.2805,-1.4578,-1.4538,-1.5608,-1.7141,-1.741,-1.877,-1.9752,-1.8498,-1.8545,-1.9399,-1.6467,-1.2572,-1.2498,-1.2151,-0.92687,-0.76846,-0.54259,-0.20504,-0.14197,0.032076,0.38084,0.44777,0.53224,0.62353,0.51216,0.68879,0.94772,0.82741,0.7296,0.7112,0.57064,0.59894,0.76495,0.71934,0.56332,0.5173,0.49819,0.50454,0.59125,0.56238,0.44704,0.4524,0.4407,0.44913,0.65794,0.77128,0.68832,0.76058,0.95107,0.95168,0.86996,0.96021,1.0703,1.0028,0.90787,0.91646,0.92397,0.76736,0.65622,0.76236,0.50137,-0.33334,-0.52455
-1,2.689,2.7087,2.0084,2.2358,1.517,0.029916,-0.56135,-0.7937,-0.97937,-1.2882,-1.1781,-1.39,-1.3843,-1.4799,-1.6175,-1.6068,-1.7073,-1.8334,-1.7512,-1.8838,-1.9134,-1.9986,-1.8438,-1.9308,-1.734,-1.5787,-1.3687,-1.067,-0.68688,-0.38255,0.0058376,0.28645,0.56435,0.76388,0.92431,1.1768,1.0196,1.0565,0.97453,0.97209,0.79757,0.80533,0.78101,0.79397,0.64514,0.66609,0.63825,0.60023,0.51807,0.64637,0.51212,0.47816,0.34187,0.40104,0.40939,0.30471,0.25777,0.38756,0.25075,0.26046,0.11719,0.13005,0.30663,0.093103,0.093169,0.069559,0.21729,0.064019,0.19103,0.080115,0.12377,0.16413,0.24552,0.59856,0.78595,0.63289,0.60111,0.39655,0.18487,0.23944,0.04878,0.014701,0.056774,-0.15952,-0.022906,-0.1374,-0.13661,-0.072176,-0.082738,-0.13847,-0.1204,-0.089411,-0.24314,-0.11971,0.12404,0.27346
-1,0.19768,0.45542,0.97311,1.936,2.2595,1.7413,1.1583,0.41824,-0.071605,-0.24125,-0.24348,-0.2639,-0.62166,-0.41872,-0.1885,-0.62314,-0.93579,-1.1178,-1.245,-1.3278,-1.3543,-1.2619,-1.2809,-1.3679,-1.5094,-1.749,-1.6911,-1.5754,-1.8345,-1.848,-1.7747,-2.0596,-2.1798,-2.0213,-1.7997,-1.5895,-1.4507,-1.2929,-1.0362,-0.72906,-0.41532,-0.20284,0.00030512,0.21511,0.29556,0.40504,0.4554,0.54208,0.73676,0.6715,0.63718,0.77935,0.67813,0.55737,0.63462,0.57044,0.46619,0.4841,0.46811,0.43415,0.43444,0.46885,0.43788,0.46474,0.52942,0.50502,0.5958,0.60665,0.57833,0.65746,0.66066,0.80421,0.95017,0.86632,1.0015,1.2668,1.2613,1.2622,1.1996,0.94306,0.83352,0.69157,0.41831,0.42602,0.57806,0.58023,0.48245,0.32557,0.24799,0.18413,0.050358,0.24199,0.33145,-0.12001,0.042423,0.34329
1,0.1795,1.0384,1.9464,2.7051,1.6707,-0.10117,-1.5789,-0.75091,0.17531,0.064901,0.44313,0.034639,0.0095426,-0.53952,-0.77037,-0.8646,-1.2169,-1.1221,-1.2971,-1.0562,-1.2684,-1.4927,-1.4999,-1.643,-1.5111,-1.8409,-1.5926,-1.7653,-2.0782,-1.802,-2.03,-2.0198,-1.9856,-1.7245,-1.6564,-1.5422,-1.11,-0.71824,-0.30093,-0.23294,0.30359,0.46398,0.49706,0.86969,0.93148,0.77661,0.95723,0.84271,0.59998,0.83158,0.48951,0.3745,0.72581,0.56427,0.66096,0.52405,0.46672,0.61706,0.6849,0.46143,0.50701,0.5428,0.53118,0.73013,0.77407,0.55115,0.41733,0.58128,0.49455,0.49244,0.48735,0.46125,0.64846,0.99879,0.9627,1.0422,0.75879,0.61377,0.7397,0.41965,0.5865,0.34466,0.2075,0.52698,0.27258,0.34841,0.32432,0.33049,0.11195,0.44895,0.56713,0.13676,0.44477,0.15105,0.19338,0.45171
1,0.073124,0.77605,2.1813,3.4403,2.1685,0.49732,-0.92428,-1.4992,-0.67933,-0.54989,-0.78726,-0.86525,-0.67281,-0.43837,-0.75957,-1.2471,-0.76753,-0.90355,-1.1947,-1.1219,-0.98356,-1.2439,-1.4228,-1.247,-1.5611,-1.4887,-1.2421,-1.5224,-1.9512,-1.8815,-1.7515,-1.8198,-1.563,-1.4382,-1.3598,-0.81603,-0.6196,-0.48986,-0.15567,0.11285,0.59186,0.71815,0.65506,0.75182,1.0983,1.2792,1.0563,0.99465,1.1167,0.8999,0.75356,0.93003,0.91517,0.77816,0.75509,0.76912,0.79652,0.83954,0.76157,0.62996,0.94179,0.51484,0.57169,0.84011,0.57367,0.71732,0.8115,0.63732,0.22064,0.68523,0.52608,0.44106,0.32928,0.60522,0.99377,0.83344,0.74054,0.61812,0.62579,0.46865,0.059755,0.096982,0.19686,-0.0021268,-0.094384,-0.25349,-0.058935,-0.13064,-0.34723,-0.17793,-0.060332,-0.34763,-0.44744,-0.066689,-0.17845,-0.25605
